1665244121.00
64.000000
-0.00
-0.00
-0.00
-0.00
-0.00
-0.00
-0.00
-0.00
-0.00
-0.00
0.00
0.01
0.01
-0.00
-0.03
-0.05
-0.05
0.00
0.13
0.36
0.66
1.01
1.37
1.72
2.06
2.40
2.79
3.24
3.80
4.42
5.06
5.66
6.20
6.68
7.15
7.68
8.31
9.14
10.09
11.04
11.88
12.56
13.14
13.76
14.65
15.96
17.91
20.32
22.90
25.38
27.58
29.57
31.68
34.32
37.81
42.54
48.15
54.10
59.83
64.97
69.58
74.14
79.34
85.71
93.76
103.00
112.62
121.73
129.77
136.75
143.30
150.75
157.77
166.64
177.95
191.79
206.97
220.57
228.25
225.36
208.53
176.87
132.76
80.05
23.07
-34.94
-92.43
-149.15
-205.23
-260.37
-313.75
-363.89
-409.83
-450.88
-486.44
-515.66
-537.19
-549.30
-550.21
-538.80
-514.79
-479.32
-434.51
-383.01
-327.53
-270.37
-213.28
-157.52
-104.04
-53.62
-7.18
34.39
70.40
100.45
124.57
143.20
157.06
166.99
173.77
177.96
179.89
179.69
177.38
173.01
166.80
159.21
150.87
142.47
134.52
127.21
120.27
113.15
105.27
96.33
86.56
76.66
67.54
59.96
54.09
49.42
44.90
39.42
32.35
23.88
15.01
7.13
1.28
-2.18
-3.90
-4.98
-6.72
-10.01
-15.34
-22.89
-32.31
-42.15
-49.42
-50.03
-40.53
-20.27
7.19
34.83
55.22
64.00
62.04
54.64
48.45
47.65
52.07
57.90
60.62
57.77
50.19
40.66
31.77
24.48
18.57
14.09
12.28
15.26
23.99
36.99
49.73
56.73
54.31
42.55
25.31
8.11
-4.64
-11.34
-13.20
-12.56
-11.17
-9.46
-7.01
-3.52
0.53
4.07
6.23
6.66
5.88
4.71
3.84
3.37
2.85
1.52
-1.18
-5.26
-10.15
-14.71
-17.81
-18.77
-17.81
-15.97
-14.68
-15.02
-17.20
-20.37
-23.12
-24.24
-23.27
-20.59
-17.09
-13.67
-10.82
-8.57
-6.79
-5.18
-3.48
-1.38
1.64
5.74
10.79
16.02
20.17
22.21
21.68
18.93
15.06
11.22
8.30
6.55
5.74
5.38
5.08
4.68
4.22
3.94
3.98
4.40
5.12
6.12
7.45
9.31
11.78
14.68
17.47
19.31
19.50
17.80
14.37
9.95
5.46
1.55
-1.60
-4.05
-6.04
-7.72
-9.13
-10.32
-11.32
-12.18
-12.76
-12.77
-11.94
-10.15
-7.65
-5.06
-3.22
-2.67
-3.37
-4.50
-4.94
-3.49
0.48
6.62
13.46
18.68
19.72
14.50
2.65
-14.26
-32.47
-47.30
-54.40
-51.13
-37.38
-15.35
11.32
38.90
64.44
86.39
104.11
117.36
125.97
129.56
127.62
119.73
105.94
87.21
65.71
44.56
27.42
17.46
16.61
24.76
40.30
60.70
82.93
103.95
120.64
129.90
129.45
119.07
100.66
78.19
56.18
37.80
23.82
12.59
1.31
-11.82
-26.77
-42.34
-57.03
-70.15
-82.44
-95.15
-110.42
-131.01
-158.90
-193.98
-233.35
-271.08
-299.44
-311.93
-304.98
-280.73
-246.30
-209.78
-177.03
-150.56
-129.44
-110.31
-89.21
-60.65
-19.81
35.67
105.42
184.92
264.54
331.94
377.77
391.27
374.47
341.70
303.86
264.79
227.38
192.92
161.80
134.81
109.89
85.98
61.81
35.45
6.15
-24.87
-54.80
-81.29
-102.14
-121.26
-141.89
-166.21
-195.64
-230.34
-269.73
-311.36
-352.33
-387.09
-413.97
-429.20
-428.67
-411.62
-382.20
-349.12
-320.69
-303.80
-265.71
-190.71
-85.46
26.51
123.23
195.17
234.67
254.28
263.20
267.06
262.00
242.80
211.47
171.41
128.21
86.27
51.34
26.75
14.88
11.73
12.77
15.34
18.62
23.17
26.71
28.86
30.53
35.15
43.39
55.09
69.92
87.10
106.38
122.42
131.86
134.39
132.74
128.17
120.41
108.57
91.50
69.55
36.73
-10.91
-72.43
-142.59
-216.07
-289.44
-361.24
-431.06
-464.70
-444.25
-378.99
-297.17
-222.55
-165.13
-125.66
-100.70
-92.07
-87.67
-83.19
-75.65
-61.09
-36.80
-3.46
34.64
74.73
111.87
144.55
165.31
168.56
155.70
133.31
108.79
90.14
78.28
72.48
73.23
77.41
79.96
79.51
71.97
55.71
31.27
1.95
-28.19
-55.30
-79.35
-101.27
-121.16
-139.02
-152.74
-162.92
-170.12
-174.85
-176.92
-176.81
-174.69
-170.06
-162.28
-149.48
-134.54
-118.57
-102.02
-84.47
-65.33
-44.11
-20.75
3.96
29.45
54.61
78.99
102.35
125.30
149.26
176.00
207.01
242.51
282.40
323.45
359.82
383.94
389.84
375.57
343.84
301.08
255.34
216.82
190.93
176.62
167.77
158.37
146.04
132.38
121.29
116.02
122.20
140.09
164.10
186.20
201.77
211.48
218.98
227.70
239.30
260.63
295.44
341.80
392.82
440.45
477.64
498.55
499.36
439.11
306.64
128.35
-48.55
-189.81
-286.60
-346.00
-379.08
-395.18
-400.76
-393.81
-374.05
-346.47
-319.11
-297.75
-283.45
-274.14
-267.35
-261.40
-250.89
-233.70
-213.11
-195.77
-186.49
-185.55
-188.25
-188.04
-179.11
-155.81
-118.19
-73.22
-31.67
-2.84
10.40
10.97
4.13
-5.21
-13.28
-19.41
-24.37
-29.85
-35.13
-37.79
-36.11
-30.79
-24.78
-21.19
-22.01
-27.12
-34.57
-41.59
-46.33
-48.95
-51.36
-55.71
-62.94
-72.26
-81.64
-88.93
-92.98
-93.50
-90.43
-83.84
-73.02
-57.22
-36.24
-10.64
17.85
46.77
73.12
93.63
105.34
106.11
95.36
75.04
49.72
25.64
8.56
1.34
2.41
6.56
7.91
2.89
-8.19
-22.12
-35.68
-48.01
-60.84
-76.61
-95.58
-113.91
-125.28
-123.72
-106.44
-75.06
-34.30
11.17
58.59
107.12
155.90
201.54
237.68
256.76
253.63
228.52
187.86
141.88
100.61
70.13
51.10
40.46
34.21
30.09
28.24
30.05
36.26
45.84
56.42
65.53
71.93
75.75
77.70
78.19
76.65
71.74
62.29
48.05
30.18
11.08
-6.30
-19.35
-26.51
-27.67
-24.11
-18.04
-11.81
-7.34
-5.45
-5.95
-7.87
-9.99
-11.55
-12.45
-13.16
-14.43
-16.89
-20.85
-26.36
-33.41
-42.00
-52.00
-62.88
-73.47
-81.96
-86.55
-86.03
-80.34
-70.77
-59.43
-48.69
-40.42
-35.72
-34.78
-36.98
-41.16
-45.95
-49.98
-52.19
-52.03
-49.46
-45.00
-39.57
-34.35
-30.41
-28.35
-27.91
-28.03
-27.21
-24.24
-18.67
-11.06
-2.60
5.67
13.23
20.22
27.06
33.90
40.39
46.01
50.46
54.02
57.40
61.11
64.84
67.21
66.37
60.75
50.05
35.59
19.92
5.78
-4.66
-10.27
-10.92
-7.20
-0.45
7.14
12.52
12.49
5.08
-9.24
-27.13
-43.41
-53.21
-54.16
-47.52
-37.15
-27.60
-21.83
-20.21
-21.04
-21.82
-20.69
-17.07
-11.48
-4.83
2.16
9.20
15.84
21.19
24.08
23.61
19.65
13.14
6.36
2.48
4.51
14.49
32.57
56.74
82.76
104.68
115.28
109.19
85.56
48.10
4.18
-38.06
-72.58
-96.28
-109.10
-114.29
-114.92
-112.36
-107.58
-101.54
-95.32
-89.25
-81.44
-68.96
-52.46
-34.75
-19.66
-12.54
-17.88
-37.16
-67.78
-102.37
-131.65
-150.55
-156.09
-146.19
-121.93
-86.69
-44.97
-10.02
5.42
13.81
23.75
32.11
39.49
47.86
60.13
78.66
103.29
131.37
157.15
170.70
165.40
142.77
110.22
78.12
55.44
46.62
52.00
68.46
88.62
105.15
112.48
105.28
79.60
35.10
-22.82
-82.07
-127.39
-147.18
-136.64
-99.14
-45.76
9.21
53.42
79.70
86.97
78.12
56.72
26.47
-8.51
-43.45
-72.87
-91.60
-96.74
-88.96
-72.54
-53.91
-38.57
-28.69
-22.68
-16.61
-6.33
10.55
33.84
60.97
88.00
111.04
127.37
136.29
138.85
137.10
132.97
127.63
121.25
113.48
104.01
93.13
81.79
70.75
60.08
49.29
38.02
26.63
16.18
7.71
1.85
-0.72
-0.19
2.54
6.47
10.89
15.69
20.86
25.98
30.68
35.93
42.53
50.54
59.34
68.19
76.57
84.14
90.18
94.40
98.61
104.21
111.42
119.20
126.40
132.40
137.17
140.05
131.82
109.29
76.12
40.29
7.94
-19.07
-41.13
-58.09
-71.45
-81.14
-84.58
-81.08
-73.50
-67.35
-67.89
-78.44
-96.66
-121.91
-151.34
-179.74
-203.32
-221.51
-236.34
-250.80
-267.46
-287.96
-315.66
-349.17
-381.00
-401.60
-403.37
-382.96
-341.71
-284.63
-201.64
-100.56
0.10
83.63
142.95
178.59
193.76
192.51
179.99
162.47
143.53
125.40
110.99
102.34
99.99
103.78
114.12
131.55
155.80
183.20
210.09
233.81
252.74
265.97
273.27
275.24
273.22
269.05
263.50
258.10
254.68
253.61
252.84
248.73
237.98
219.19
193.39
162.56
129.55
97.09
66.85
39.35
14.44
-8.09
-28.52
-47.45
-66.10
-85.79
-107.25
-130.43
-154.79
-179.12
-201.85
-221.25
-235.79
-244.49
-247.26
-244.76
-238.19
-228.74
-217.13
-203.52
-187.77
-169.80
-150.12
-130.03
-111.47
-96.62
-87.21
-83.79
-85.32
-89.52
-93.90
-97.08
-99.61
-103.54
-111.07
-122.83
-137.23
-151.13
-161.58
-167.46
-169.85
-171.03
-172.90
-175.73
-178.24
-178.70
-176.27
-171.60
-166.33
-161.69
-157.11
-149.80
-135.60
-110.69
-73.78
-27.28
22.91
69.11
104.55
125.48
132.19
128.18
118.29
106.65
95.55
85.46
75.84
66.05
55.84
45.41
35.29
25.94
17.70
10.43
3.26
-5.59
-18.53
-37.81
-64.17
-95.80
-128.03
-154.13
-166.94
-161.04
-134.62
-90.82
-37.86
12.25
46.31
53.43
28.61
-25.25
-97.69
-173.69
-238.29
-281.01
-298.16
-292.41
-270.18
-238.48
-202.71
-166.10
-130.51
-97.37
-67.92
-42.74
-21.03
-0.21
23.55
53.94
93.01
140.27
192.35
243.68
287.85
319.33
335.35
336.51
326.81
311.83
296.84
285.18
277.71
273.42
270.64
268.08
265.28
262.20
258.92
255.32
251.10
246.00
240.04
233.37
226.36
219.48
213.59
209.91
209.70
213.70
221.64
232.10
242.81
251.24
255.17
252.81
242.99
224.83
197.95
162.41
118.93
68.61
12.93
-45.64
-103.76
-157.37
-202.44
-235.99
-256.80
-266.39
-268.47
-267.58
-266.91
-267.47
-268.22
-267.58
-264.75
-259.95
-254.92
-252.16
-254.21
-261.77
-273.64
-287.26
-299.71
-308.51
-310.97
-305.99
-293.74
-275.99
-252.60
-223.37
-189.44
-154.75
-124.88
-102.07
-85.83
-72.95
-61.08
-45.51
-24.13
0.92
23.79
39.26
50.22
63.00
83.39
109.84
141.82
177.42
214.63
251.43
287.51
328.72
378.62
434.40
483.02
517.25
534.93
538.71
532.44
487.81
392.62
258.33
142.51
55.32
-6.06
-54.16
-92.42
-122.89
-147.34
-162.42
-166.58
-162.34
-159.93
-162.69
-169.84
-177.82
-183.88
-186.03
-179.21
-160.69
-131.94
-101.35
-72.91
-48.08
-26.21
-6.81
10.79
29.62
51.48
75.37
95.90
110.74
119.71
124.58
127.21
129.32
133.10
139.32
146.95
152.75
155.25
154.58
151.91
148.31
143.95
137.98
128.25
112.05
87.26
54.62
17.39
-19.67
-52.31
-77.84
-95.70
-106.86
-113.00
-115.66
-115.92
-114.42
-111.76
-108.78
-106.57
-106.21
-108.27
-112.54
-117.95
-122.97
-126.29
-127.39
-126.83
-125.88
-125.78
-127.02
-129.18
-131.17
-131.92
-130.96
-128.55
-125.47
-122.59
-120.45
-119.10
-118.19
-117.18
-115.62
-113.37
-110.73
-108.17
-105.99
-104.05
-101.56
-97.37
-90.48
-80.62
-68.45
-55.37
-42.96
-32.31
-23.78
-17.07
-11.45
-6.25
-1.23
3.42
7.21
9.60
10.42
10.00
9.11
8.67
9.31
11.00
13.09
14.56
14.37
11.92
7.15
0.46
-7.54
-16.17
-24.84
-32.86
-39.54
-44.22
-46.39
-45.78
-42.49
-36.85
-29.42
-20.74
-11.21
-1.13
9.28
19.84
30.38
40.91
51.65
63.26
76.60
92.60
111.93
134.78
160.16
185.53
206.78
219.14
218.92
205.18
180.63
151.00
123.04
102.16
90.84
88.53
92.96
101.62
112.71
125.26
138.25
150.06
158.37
160.61
154.91
140.58
118.52
90.85
60.67
31.13
4.58
-18.00
-36.99
-53.58
-68.75
-82.57
-94.21
-102.54
-107.05
-108.16
-107.04
-104.81
-101.83
-97.66
-91.39
-82.48
-71.10
-58.18
-44.85
-31.88
-19.47
-7.31
4.95
17.53
30.29
42.89
54.83
65.78
75.66
84.69
93.26
101.63
109.64
116.61
121.64
123.83
122.80
118.67
111.89
102.80
91.28
76.81
58.83
37.51
14.05
-9.33
-30.00
-45.87
-55.92
-60.38
-60.25
-56.84
-51.60
-46.17
-42.22
-41.13
-43.20
-47.21
-50.57
-50.22
-44.06
-31.85
-15.34
2.55
19.04
32.46
42.51
49.73
54.78
57.99
59.40
58.88
56.55
52.66
47.60
41.90
35.98
30.12
24.34
18.33
11.69
4.13
-4.26
-12.77
-20.15
-24.89
-25.64
-21.91
-14.20
-4.03
6.70
16.25
23.58
28.54
31.75
34.27
37.24
41.69
48.58
58.83
73.21
92.19
115.72
143.03
172.85
203.70
234.31
263.74
291.09
315.13
334.16
346.16
349.46
343.45
329.02
308.37
284.26
259.16
234.62
211.10
188.29
165.59
142.54
118.92
94.73
69.97
44.61
18.60
-8.08
-35.41
-63.33
-91.70
-120.36
-149.14
-177.91
-206.64
-235.42
-264.45
-293.83
-323.51
-353.28
-383.12
-413.55
-445.67
-480.55
-518.10
-556.10
-590.08
-614.42
-624.19
-616.83
-592.73
-554.68
-506.55
-452.19
-395.02
-338.17
-284.75
-237.42
-197.63
-164.92
-136.89
-110.26
-82.26
-51.66
-18.92
14.60
47.73
80.38
113.75
150.12
191.97
240.79
295.86
353.41
406.86
448.22
470.39
469.55
446.30
405.27
353.07
296.12
239.06
184.13
131.77
81.54
32.69
-15.79
-65.42
-118.24
-175.64
-236.80
-297.94
-352.63
-393.69
-416.03
-418.71
-405.73
-385.13
-365.46
-352.60
-347.94
-348.68
-349.29
-344.15
-329.21
-303.07
-268.73
-231.17
-195.84
-167.67
-150.49
-145.77
-152.71
-167.37
-183.58
-197.55
-205.82
-205.39
-194.73
-175.32
-150.27
-124.67
-102.01
-83.13
-70.54
-63.10
-55.76
-42.86
-22.98
1.18
21.47
30.79
26.54
5.82
-28.08
-66.14
-98.46
-120.09
-129.54
-131.46
-130.48
-92.43
-5.78
111.89
225.83
309.96
345.97
348.67
329.93
297.38
256.29
210.27
164.27
127.45
109.88
116.16
147.53
196.98
255.22
313.82
362.44
394.67
409.74
411.45
393.04
355.35
305.97
257.23
217.71
186.31
158.57
132.04
110.59
94.84
87.86
90.21
100.98
118.86
142.15
171.07
202.97
236.08
266.45
290.43
302.59
297.74
272.80
227.66
165.56
92.16
14.67
-60.20
-124.97
-173.46
-201.79
-209.41
-199.39
-178.14
-153.70
-132.66
-118.55
-110.15
-103.68
-95.46
-83.90
-69.95
-55.96
-44.20
-35.32
-28.60
-22.40
-15.56
-8.14
-1.27
3.90
7.08
8.99
11.07
14.36
18.83
23.26
25.67
24.46
19.37
11.71
3.96
-1.15
-1.75
2.59
10.93
21.55
32.79
43.64
53.71
63.17
72.36
81.62
91.12
100.73
110.01
118.14
124.26
127.68
128.23
126.09
121.31
113.32
100.77
82.09
56.45
24.70
-10.44
-44.83
-74.39
-96.29
-109.59
-115.13
-114.74
-110.45
-103.88
-96.02
-87.31
-77.74
-67.03
-54.63
-39.94
-22.54
-2.51
19.31
41.25
60.98
76.24
85.58
88.97
87.96
85.18
83.15
83.08
84.07
83.41
78.04
66.24
48.85
29.17
11.50
-0.74
-6.54
-7.37
-6.02
-4.97
-5.38
-6.98
-9.07
-11.51
-15.09
-21.08
-30.38
-42.85
-57.36
-72.28
-85.95
-97.24
-105.57
-110.91
-113.64
-114.31
-113.39
-110.98
-106.81
-100.44
-91.67
-81.06
-69.86
-59.73
-52.02
-47.12
-44.43
-42.70
-40.73
-37.99
-34.73
-31.80
-30.30
-31.07
-34.60
-40.98
-49.94
-60.84
-72.79
-84.72
-95.44
-104.12
-110.86
-117.22
-126.48
-143.17
-171.86
-215.34
-272.91
-339.68
-407.17
-465.46
-505.78
-522.63
-514.74
-484.61
-437.07
-377.76
-312.08
-244.73
-179.53
-119.36
-65.87
-19.22
21.91
60.09
98.51
140.01
186.11
235.82
285.31
328.65
359.83
375.10
374.70
362.83
345.78
329.13
315.58
304.43
292.85
278.05
258.86
236.12
211.85
187.93
165.43
144.51
125.09
107.18
90.98
76.55
63.49
50.97
37.83
23.23
6.86
-11.00
-29.48
-47.33
-62.91
-74.51
-80.71
-80.99
-76.07
-67.85
-58.75
-50.69
-44.45
-39.50
-34.70
-29.12
-22.59
-15.49
-8.39
-1.52
5.46
13.20
22.32
33.16
45.52
58.65
71.39
82.29
90.11
94.15
94.35
91.30
85.86
79.13
72.20
66.16
61.90
59.63
58.72
57.64
54.57
48.37
39.16
28.33
17.55
7.86
-0.79
-9.15
-17.70
-25.94
-32.48
-35.80
-35.22
-31.19
-25.02
-18.13
-11.41
-5.21
0.43
5.30
8.87
10.64
10.35
8.15
4.32
-0.98
-7.69
-15.75
-24.62
-33.37
-40.94
-46.72
-50.89
-54.23
-57.60
-61.36
-65.08
-67.66
-67.86
-64.57
-56.91
-44.12
-25.62
-1.61
26.20
54.14
77.02
89.69
89.05
75.53
53.33
28.71
7.58
-6.75
-14.39
-18.13
-21.62
-27.72
-37.52
-50.53
-65.50
-81.30
-97.18
-112.74
-127.62
-141.22
-152.74
-161.46
-166.82
-168.65
-167.17
-163.04
-157.28
-150.97
-144.57
-137.72
-129.13
-117.26
-101.51
-82.86
-63.76
-47.31
-36.11
-31.73
-35.02
-46.57
-66.77
-95.16
-129.06
-163.30
-191.14
-206.42
-205.79
-189.82
-162.02
-126.82
-87.58
-45.72
-1.42
44.73
90.72
133.06
167.94
192.86
207.75
214.96
218.36
221.49
225.84
230.29
231.62
226.36
213.03
193.51
172.95
158.19
155.17
166.77
191.81
225.44
260.96
291.96
314.12
325.97
328.53
324.28
315.78
305.05
293.00
279.98
266.28
252.55
239.86
229.43
222.39
219.42
220.62
225.29
231.77
237.57
239.91
236.71
227.77
215.12
202.20
192.10
185.92
182.05
177.14
168.14
153.95
136.04
117.30
99.97
84.43
69.59
54.18
38.30
23.40
10.87
0.70
-9.22
-22.22
-41.03
-65.80
-93.88
-121.24
-144.94
-165.29
-184.44
-204.38
-225.09
-244.26
-258.60
-266.22
-268.49
-269.99
-277.67
-295.18
-320.66
-347.75
-369.26
-380.68
-381.90
-376.34
-368.57
-363.86
-363.30
-364.92
-367.15
-371.73
-383.21
-405.47
-437.89
-473.83
-504.88
-519.89
-509.27
-469.39
-404.43
-323.83
-237.42
-151.81
-52.57
59.76
171.76
266.43
334.88
378.37
403.06
415.19
418.26
412.07
391.09
352.29
298.20
236.53
177.11
128.24
94.39
75.30
67.07
62.54
57.40
51.39
46.24
42.96
40.70
37.58
32.17
24.43
14.35
2.96
-7.12
-14.32
-18.97
-22.77
-27.77
-35.64
-47.22
-62.63
-79.65
-93.70
-99.39
-92.79
-73.48
-45.09
-14.14
12.60
30.52
38.74
39.41
35.23
27.59
16.60
2.31
-13.99
-29.29
-40.24
-44.74
-43.11
-37.33
-30.59
-25.29
-22.06
-20.30
-19.35
-19.51
-21.91
-27.14
-34.21
-40.25
-41.41
-34.50
-18.48
5.16
33.11
61.16
85.08
100.83
104.78
95.00
72.51
42.26
12.40
-8.52
-14.72
-5.32
15.79
42.17
67.39
86.81
97.95
100.03
93.58
80.44
63.92
48.22
37.14
32.80
34.84
40.86
47.74
52.77
54.24
51.34
43.90
32.47
18.62
4.62
-7.04
-14.61
-17.85
-17.63
-15.42
-12.56
-9.73
-7.18
-4.96
-3.24
-2.25
-2.16
-3.00
-4.58
-6.64
-8.86
-10.95
-12.63
-13.64
-13.82
-13.32
-12.46
-11.56
-10.88
-10.39
-9.96
-9.65
-9.91
-11.55
-15.53
-22.46
-32.44
-44.75
-57.66
-68.29
-72.60
-66.25
-46.43
-13.52
28.04
70.55
105.57
126.86
132.57
125.10
109.37
90.18
70.75
52.62
36.36
22.92
13.91
11.21
15.80
26.90
41.51
55.61
65.69
69.58
66.77
57.76
43.52
24.99
3.68
-18.43
-37.37
-47.76
-45.31
-29.14
-3.43
24.20
45.30
53.26
43.80
17.59
-19.91
-60.67
-96.10
-119.74
-127.28
-117.75
-94.08
-64.45
-36.82
-15.91
-3.27
1.48
-2.09
-13.90
-33.64
-60.47
-95.48
-136.56
-177.81
-212.22
-234.13
-242.37
-237.65
-221.89
-180.93
-115.82
-43.44
16.97
54.09
75.85
88.01
93.31
92.59
86.22
72.80
54.07
35.54
23.40
21.57
28.89
42.32
58.44
74.21
85.30
89.52
87.21
79.68
68.07
52.14
33.05
13.17
-4.91
-20.47
-33.01
-41.40
-44.45
-41.92
-35.59
-27.83
-20.91
-16.34
-14.59
-14.26
-12.45
-6.74
3.10
14.66
24.75
31.07
33.26
32.76
32.06
33.14
36.38
40.10
42.20
41.81
39.42
36.19
33.26
31.10
29.61
28.47
26.93
25.57
25.92
28.91
33.62
37.66
38.50
34.71
26.48
13.74
-2.01
-18.39
-33.68
-47.61
-60.87
-74.41
-89.20
-106.66
-130.07
-160.42
-195.03
-228.30
-253.88
-266.09
-261.40
-239.63
-193.06
-128.21
-63.02
-14.04
13.80
24.56
24.85
19.95
13.11
7.80
3.85
2.73
7.43
19.87
38.65
59.55
77.82
90.94
94.30
87.44
74.68
62.66
56.55
57.39
62.76
69.12
74.97
81.56
91.66
107.96
130.48
155.56
176.54
187.12
183.58
167.27
144.41
123.91
114.22
120.56
143.56
179.33
220.71
257.55
281.02
285.99
273.04
247.55
217.79
192.45
177.94
176.41
182.21
186.53
180.50
159.62
123.87
76.54
22.82
-31.94
-83.58
-133.46
-183.56
-235.50
-288.01
-338.99
-387.65
-435.06
-483.21
-510.47
-501.25
-454.86
-388.68
-321.38
-263.16
-216.38
-179.55
-150.12
-125.27
-111.51
-106.99
-110.18
-118.06
-128.44
-141.59
-159.28
-182.49
-209.67
-239.64
-260.90
-265.12
-246.31
-204.27
-145.36
-79.48
-15.59
41.43
89.50
130.07
163.94
192.31
216.12
236.34
254.30
271.04
285.98
295.47
295.65
283.37
259.66
229.02
196.54
164.71
131.74
92.80
43.12
-17.33
-83.22
-144.12
-188.73
-209.31
-203.83
-175.13
-128.12
-67.42
2.79
76.60
144.51
193.72
211.93
193.25
143.10
78.59
23.42
-1.07
15.52
68.56
140.31
206.53
245.11
243.08
199.98
127.12
43.37
-30.60
-77.90
-89.25
-64.18
-10.11
59.87
129.90
184.19
210.45
203.50
167.67
116.17
66.80
34.96
27.59
40.56
61.31
74.95
70.36
43.64
-2.54
-61.39
-124.91
-185.26
-235.29
-269.33
-284.39
-281.35
-265.33
-244.19
-225.48
-213.93
-209.92
-209.74
-207.47
-196.60
-171.74
-129.81
-70.65
2.19
80.96
154.43
210.24
238.84
237.61
212.64
177.05
145.68
128.82
128.06
136.57
143.77
141.56
128.39
108.71
88.94
72.80
59.12
43.26
20.66
-9.99
-46.22
-83.05
-115.40
-139.63
-154.00
-158.64
-154.96
-145.39
-132.81
-119.87
-107.89
-96.68
-85.15
-72.38
-58.53
-44.69
-31.74
-19.30
-5.74
10.40
28.33
44.33
52.70
48.59
30.66
2.38
-29.08
-56.00
-73.55
-82.18
-87.29
-96.12
-113.90
-141.17
-173.91
-206.32
-234.22
-256.76
-275.50
-291.64
-303.63
-307.18
-297.67
-273.56
-238.43
-199.59
-164.38
-136.46
-114.16
-92.07
-64.57
-29.05
12.81
56.15
95.73
128.83
156.49
182.59
210.85
241.74
271.20
292.31
299.36
291.81
275.00
257.14
244.43
237.47
231.48
219.81
198.25
166.92
129.39
89.91
51.50
15.98
-15.38
-40.74
-58.03
-66.23
-66.30
-60.50
-50.88
-38.39
-23.08
-5.63
11.53
24.56
29.81
25.78
13.75
-2.43
-17.97
-29.31
-35.64
-39.27
-44.62
-55.96
-75.14
-100.02
-124.92
-142.73
-147.46
-135.90
-107.84
-65.70
-13.85
41.45
91.82
128.36
144.45
139.33
119.34
95.84
80.17
78.47
89.60
106.92
122.59
131.74
133.93
131.53
126.29
117.42
102.38
79.81
52.26
26.45
10.53
9.99
24.36
47.34
69.93
84.83
89.19
84.82
75.90
66.19
57.65
50.56
44.83
40.87
39.42
40.70
43.84
47.40
50.30
52.31
53.36
52.82
49.11
40.52
26.37
7.81
-12.87
-33.70
-53.86
-73.36
-91.69
-107.10
-116.97
-119.38
-114.62
-105.22
-94.67
-85.34
-77.85
-71.30
-64.98
-59.11
-54.34
-50.91
-47.74
-43.29
-36.90
-29.81
-24.81
-24.56
-29.62
-37.76
-44.91
-47.09
-42.06
-30.17
-13.94
3.01
16.84
24.13
22.54
11.29
-8.48
-33.63
-59.90
-83.36
-101.58
-114.17
-122.09
-126.54
-128.01
-125.72
-117.93
-102.45
-77.75
-44.10
-4.31
36.43
72.08
97.84
112.00
116.37
115.04
111.94
108.61
103.69
94.04
77.06
52.90
25.08
-0.39
-17.02
-19.91
-7.15
19.67
56.10
96.08
133.04
161.34
176.84
177.34
162.84
135.76
100.72
63.58
29.91
3.36
-15.29
-27.55
-36.06
-42.67
-47.48
-49.18
-46.35
-38.85
-28.05
-16.28
-5.55
3.20
10.13
15.94
21.10
25.41
28.24
29.06
27.81
24.91
20.68
15.18
8.06
-0.66
-9.89
-17.47
-20.81
-18.58
-11.50
-2.39
5.04
7.71
4.12
-5.45
-19.69
-37.07
-55.80
-73.66
-87.80
-95.35
-94.51
-85.56
-71.06
-54.96
-40.84
-30.62
-24.04
-19.59
-15.72
-11.92
-9.27
-9.09
-11.91
-17.24
-23.72
-29.72
-33.95
-35.54
-34.29
-30.90
-26.14
-20.83
-16.09
-13.58
-14.92
-21.00
-30.67
-41.34
-50.30
-54.44
-51.04
-39.69
-22.67
-4.54
9.22
15.82
14.96
7.04
-3.71
-10.70
-9.83
-1.18
11.51
23.28
34.05
45.92
56.81
66.58
77.24
89.75
104.90
123.71
146.29
175.22
208.69
233.29
240.42
231.92
214.69
198.21
190.74
196.27
220.47
263.63
310.97
351.17
381.13
399.66
407.91
409.15
366.94
262.65
159.12
82.85
20.24
-32.11
-75.95
-112.90
-145.56
-177.10
-203.20
-218.61
-228.74
-234.77
-232.65
-221.94
-205.56
-187.75
-171.51
-152.54
-126.16
-98.12
-73.51
-54.33
-43.93
-44.80
-57.05
-77.93
-99.76
-115.65
-126.80
-134.96
-140.37
-144.31
-147.92
-151.29
-153.51
-151.68
-143.69
-131.54
-117.70
-103.65
-90.96
-80.76
-73.74
-70.27
-69.91
-71.84
-75.52
-79.00
-79.02
-72.79
-58.97
-38.21
-12.79
14.20
39.59
60.28
73.58
77.58
72.20
60.06
45.93
35.01
30.46
31.94
36.27
39.72
40.37
38.98
38.06
39.65
43.50
47.08
46.64
39.04
22.87
-1.35
-31.58
-64.67
-96.69
-123.43
-140.99
-146.76
-140.20
-123.11
-99.00
-72.26
-46.95
-26.05
-10.85
-0.91
5.50
10.53
15.77
21.78
28.20
34.08
38.39
40.18
38.64
33.11
23.43
10.30
-4.80
-19.92
-33.21
-42.97
-47.40
-44.75
-33.92
-15.45
7.87
31.37
50.01
60.20
61.25
55.09
45.14
34.58
25.41
18.56
14.61
14.55
19.47
29.55
42.76
54.66
59.66
53.23
33.70
3.38
-32.15
-65.95
-92.27
-108.48
-115.38
-116.14
-114.42
-112.65
-111.37
-109.73
-106.50
-101.31
-95.22
-90.35
-88.58
-90.34
-93.81
-95.80
-94.25
-90.03
-87.33
-91.63
-105.99
-128.27
-150.88
-164.02
-160.51
-139.46
-106.57
-70.77
-39.89
-17.10
-0.93
12.34
25.85
40.53
55.33
68.85
80.47
90.79
101.23
113.39
129.07
150.09
178.01
213.49
255.56
301.35
346.66
387.14
418.85
438.73
444.72
435.94
413.19
379.26
338.58
296.18
256.29
221.24
191.70
167.27
147.34
131.51
119.17
108.87
98.09
83.93
64.35
39.47
11.81
-14.84
-37.07
-53.43
-64.82
-73.53
-82.14
-91.77
-101.70
-110.21
-116.12
-119.71
-122.69
-126.80
-132.52
-139.04
-144.27
-145.55
-140.89
-130.05
-114.32
-96.32
-78.45
-62.24
-49.07
-39.40
-32.25
-25.74
-18.21
-8.89
0.83
8.00
8.66
-2.32
-28.36
-68.67
-117.82
-167.74
-210.01
-239.36
-254.05
-248.76
-223.28
-184.75
-144.13
-109.52
-86.03
-71.03
-62.71
-60.53
-64.17
-72.61
-84.03
-95.03
-101.42
-100.12
-89.70
-71.54
-48.25
-22.87
0.85
19.86
32.86
40.22
42.89
42.01
38.00
31.31
22.85
13.26
3.36
-5.69
-12.58
-16.54
-17.30
-15.44
-11.63
-6.44
-0.71
4.67
8.92
11.54
12.11
10.61
7.26
2.76
-1.78
-5.35
-7.18
-6.86
-4.30
0.18
6.05
12.59
19.09
24.97
29.83
33.43
35.79
36.90
36.76
35.32
32.74
29.36
25.82
22.77
20.63
19.46
18.95
18.73
18.56
18.46
18.50
18.66
18.63
17.96
16.39
13.98
11.24
8.87
7.32
6.56
6.19
5.65
4.65
3.41
2.52
2.71
4.38
7.40
11.08
14.55
17.09
18.43
18.97
19.37
20.33
22.23
24.79
27.24
28.49
27.55
23.75
17.05
7.84
-3.01
-14.42
-25.19
-34.25
-40.97
-45.33
-47.84
-49.21
-50.01
-50.28
-49.68
-47.84
-44.69
-40.60
-36.32
-32.47
-29.37
-26.87
-24.58
-22.12
-19.30
-16.14
-12.73
-9.18
-5.56
-1.75
2.41
7.09
12.28
17.55
22.29
25.81
27.73
28.24
28.01
28.00
28.87
30.66
32.77
34.31
34.76
34.22
33.41
33.19
33.92
35.31
36.43
36.35
34.59
31.40
27.81
25.13
24.67
27.39
33.72
43.45
55.27
66.66
74.09
73.89
63.68
43.47
16.17
-13.22
-39.33
-58.10
-67.84
-69.10
-63.74
-53.99
-41.69
-28.34
-15.25
-3.62
5.63
12.27
16.88
20.56
24.39
28.77
33.21
36.48
37.10
33.83
26.07
14.28
0.01
-14.42
-26.50
-34.54
-38.31
-38.92
-38.19
-37.54
-37.48
-37.44
-36.51
-34.18
-30.62
-26.56
-22.65
-19.15
-15.80
-12.32
-8.65
-5.27
-2.78
-1.63
-1.75
-2.71
-3.88
-4.71
-5.01
-4.79
-4.26
-3.69
-3.31
-3.29
-3.73
-4.75
-6.44
-8.79
-11.63
-14.52
-16.93
-18.26
-18.21
-16.71
-14.20
-11.48
-9.64
-9.57
-11.61
-15.38
-19.86
-23.95
-26.77
-28.07
-28.14
-27.55
-26.60
-25.19
-22.88
-19.22
-14.27
-8.73
-3.75
-0.46
0.43
-1.02
-4.26
-8.40
-12.46
-15.80
-18.19
-19.75
-20.93
-21.98
-22.90
-23.18
-22.16
-19.23
-14.30
-7.73
-0.52
6.09
11.04
13.55
13.49
11.24
7.68
3.74
0.52
-1.29
-1.35
0.14
2.60
5.46
8.35
11.10
13.73
16.18
18.26
19.48
19.55
18.13
14.97
10.14
3.98
-2.72
-8.86
-13.37
-15.37
-14.52
-10.99
-5.20
2.20
10.53
19.04
26.95
33.59
38.73
42.85
46.80
51.74
58.40
67.16
77.83
89.32
99.45
104.86
101.73
87.42
62.24
30.26
-1.88
-27.38
-42.12
-46.07
-42.64
-36.38
-30.70
-26.58
-23.38
-20.08
-16.56
-13.75
-12.77
-13.96
-16.40
-18.33
-17.83
-13.90
-6.78
2.20
11.09
18.27
22.79
24.96
25.88
26.93
28.75
30.92
32.20
31.15
27.21
20.96
13.88
7.60
3.13
0.67
-0.23
-0.20
0.21
0.59
0.50
-0.57
-3.06
-7.13
-12.71
-19.55
-27.52
-36.76
-47.32
-58.94
-70.60
-80.85
-88.19
-91.71
-91.58
-88.83
-84.88
-80.90
-77.45
-74.45
-71.38
-67.80
-63.33
-57.72
-50.76
-42.19
-31.86
-19.94
-6.90
6.52
19.68
32.13
43.51
53.36
60.99
65.77
67.48
66.72
64.78
63.06
62.37
62.49
62.42
60.93
57.34
51.80
45.20
38.48
32.14
25.97
19.44
12.30
5.02
-1.15
-4.64
-4.34
-0.16
7.03
15.64
24.14
31.57
37.70
42.72
46.92
50.32
52.66
53.69
53.35
51.96
50.05
48.18
46.57
45.10
43.47
41.37
38.80
35.99
33.23
30.64
28.11
25.25
21.64
17.12
11.79
6.10
0.52
-4.45
-8.54
-11.59
-13.65
-14.85
-15.43
-15.57
-15.36
-14.75
-13.60
-11.95
-10.08
-8.61
-8.20
-9.17
-11.35
-14.01
-16.33
-17.87
-18.77
-19.71
-21.49
-24.61
-29.04
-34.43
-40.31
-46.35
-52.27
-57.66
-61.92
-64.38
-64.78
-63.49
-61.62
-60.46
-60.96
-63.11
-65.88
-67.41
-65.62
-59.00
-47.07
-30.75
-12.02
6.65
23.02
35.96
45.47
52.60
58.62
64.26
69.31
72.88
73.88
71.74
66.64
59.39
50.96
42.17
33.47
25.10
17.18
9.94
3.61
-1.55
-5.42
-8.02
-9.47
-10.07
-10.18
-10.40
-11.21
-13.01
-15.74
-19.04
-22.37
-25.21
-27.28
-28.49
-28.94
-28.67
-27.65
-25.81
-23.23
-20.20
-17.39
-15.63
-15.58
-17.43
-20.75
-24.62
-28.07
-30.46
-31.66
-31.85
-31.41
-30.51
-29.32
-27.87
-26.27
-24.53
-22.48
-19.61
-15.25
-9.05
-1.11
7.67
16.05
22.79
27.32
29.92
31.57
33.59
37.04
42.54
50.06
59.02
68.30
76.48
81.99
83.46
80.00
71.65
59.38
44.88
30.12
16.75
5.89
-2.04
-7.02
-9.25
-9.03
-6.81
-3.39
0.32
3.46
5.52
6.42
6.39
5.70
4.43
2.53
0.00
-2.93
-5.73
-7.65
-8.03
-6.36
-2.43
3.71
11.99
22.28
34.42
47.92
61.92
74.99
85.29
90.83
89.89
81.70
66.64
46.41
23.62
1.10
-18.73
-34.33
-45.05
-50.99
-52.70
-51.07
-47.19
-42.41
-38.24
-36.02
-36.53
-39.79
-45.17
-51.59
-57.97
-63.48
-67.52
-69.68
-69.61
-67.08
-62.28
-55.84
-48.67
-41.57
-34.82
-28.15
-20.99
-12.95
-4.10
5.09
13.94
21.72
27.73
31.10
31.12
27.46
20.62
11.94
3.23
-3.94
-8.94
-12.16
-14.58
-16.91
-19.11
-20.55
-20.37
-18.31
-14.91
-11.30
-8.67
-7.63
-8.02
-9.08
-9.80
-9.52
-8.14
-6.16
-4.31
-3.07
-2.44
-1.89
-0.78
1.32
4.42
7.96
11.21
13.42
14.01
12.62
9.26
4.27
-1.54
-7.10
-11.46
-14.23
-15.73
-16.87
-18.72
-21.84
-26.17
-31.07
-35.90
-40.33
-44.39
-48.32
-52.06
-55.26
-57.34
-57.92
-57.04
-55.15
-52.78
-50.17
-47.05
-42.80
-36.90
-29.32
-20.61
-11.73
-3.57
3.34
9.01
13.74
17.80
21.29
24.10
26.11
27.36
27.97
28.22
28.22
27.97
27.42
26.60
25.76
25.31
25.51
26.41
27.74
29.07
29.92
29.96
28.97
27.03
24.65
22.75
22.48
24.70
29.34
35.40
41.25
45.38
47.17
46.97
45.77
44.40
43.09
41.51
39.33
36.78
34.56
33.44
33.39
33.28
31.28
25.80
16.37
4.14
-8.67
-19.57
-26.84
-30.17
-30.57
-29.66
-28.83
-28.66
-28.82
-28.55
-27.25
-24.93
-22.09
-19.34
-16.79
-14.08
-10.40
-5.08
1.92
10.09
18.50
26.36
33.37
39.47
44.57
48.14
49.18
46.72
40.34
30.64
19.24
8.31
-0.22
-5.20
-6.61
-5.19
-2.12
1.42
4.53
6.37
6.18
3.07
-3.62
-14.00
-27.22
-41.61
-55.08
-65.88
-73.20
-77.37
-79.55
-80.80
-81.56
-81.44
-79.57
-75.40
-69.08
-61.49
-53.75
-46.60
-40.04
-33.59
-26.85
-19.94
-13.51
-8.40
-5.20
-3.65
-3.04
-2.28
-0.28
3.68
9.89
17.96
26.87
35.14
41.17
43.75
42.51
37.99
31.42
24.36
18.01
13.12
9.86
8.12
7.63
8.14
9.38
11.09
13.03
14.91
16.55
17.84
18.97
20.50
23.37
28.47
36.09
45.71
55.90
64.94
71.49
75.13
76.57
77.17
78.17
80.22
83.06
85.90
87.88
88.48
87.58
85.45
82.37
78.66
74.71
70.87
67.35
63.94
59.86
53.89
44.76
31.75
15.10
-3.84
-23.13
-40.70
-55.11
-65.75
-72.82
-76.87
-78.42
-77.65
-74.46
-68.76
-60.70
-50.77
-39.79
-28.65
-18.17
-9.03
-1.85
2.62
3.50
-0.09
-8.67
-22.07
-39.20
-58.16
-76.54
-91.92
-102.59
-107.84
-108.33
-105.84
-102.60
-100.50
-100.56
-102.72
-106.19
-109.86
-112.71
-113.86
-112.42
-107.62
-98.86
-86.25
-70.67
-53.82
-37.58
-23.44
-12.10
-3.52
2.81
7.53
11.31
14.80
18.58
22.99
27.93
32.86
37.05
40.04
41.75
42.73
43.78
45.62
48.68
52.94
57.92
62.81
66.61
68.41
67.67
64.46
59.44
53.49
47.49
41.99
37.37
33.98
32.37
33.17
36.90
43.59
52.56
62.57
72.22
80.29
86.10
89.34
89.95
87.85
82.89
74.95
64.21
51.53
38.25
25.92
15.52
7.09
-0.24
-7.59
-15.52
-23.60
-30.66
-35.51
-37.74
-38.06
-37.92
-38.95
-42.12
-47.49
-54.36
-61.62
-68.19
-73.23
-76.28
-77.32
-76.66
-74.86
-72.25
-68.94
-64.76
-59.66
-53.87
-48.04
-42.92
-38.97
-36.16
-33.86
-31.30
-27.91
-23.55
-18.56
-13.43
-8.57
-4.09
0.08
4.25
8.62
13.43
18.63
24.03
29.24
33.76
36.98
38.32
37.38
34.07
28.78
22.35
15.77
9.94
5.33
1.90
-0.65
-2.52
-3.54
-3.14
-0.70
3.90
10.04
16.45
21.79
25.18
26.53
26.39
25.65
25.18
25.54
26.92
29.00
31.22
32.86
33.30
32.23
29.83
26.60
23.11
19.70
16.47
13.33
10.34
7.71
5.69
4.31
3.20
1.69
-0.83
-4.49
-8.89
-13.09
-16.10
-17.23
-16.41
-14.11
-11.20
-8.54
-6.77
-6.27
-7.22
-9.73
-13.76
-18.97
-24.49
-29.05
-31.23
-30.12
-25.67
-18.75
-10.73
-2.85
4.25
10.58
16.48
22.33
28.19
33.83
38.89
43.14
46.56
49.42
52.05
54.59
56.90
58.57
59.29
59.12
58.65
58.80
60.15
62.49
64.57
64.68
61.49
54.90
46.21
37.49
30.52
25.94
23.19
21.05
18.51
15.38
12.19
9.73
8.52
8.58
9.58
11.08
12.61
13.65
13.45
11.22
6.49
-0.65
-9.32
-18.26
-26.41
-33.25
-39.05
-44.48
-50.21
-56.56
-63.44
-70.71
-78.38
-86.52
-94.89
-102.51
-107.83
-109.28
-106.21
-99.48
-91.35
-84.13
-79.03
-75.48
-71.48
-65.08
-55.77
-44.82
-34.45
-26.16
-19.84
-14.10
-7.70
-0.74
5.07
7.70
6.05
1.17
-4.45
-8.18
-8.78
-6.78
-3.91
-2.08
-2.31
-4.48
-7.60
-10.38
-11.83
-11.58
-9.87
-7.36
-5.06
-3.69
-3.68
-5.00
-7.18
-9.47
-10.92
-10.58
-7.74
-2.22
5.44
14.11
22.32
28.94
33.39
35.88
36.75
36.28
34.55
31.59
27.62
23.17
18.87
14.95
11.43
8.11
4.77
1.29
-2.31
-6.31
-11.13
-16.96
-23.68
-30.50
-36.30
-40.10
-41.36
-40.45
-38.37
-36.38
-35.70
-37.14
-40.86
-46.34
-52.32
-57.00
-58.51
-55.50
-47.73
-36.10
-22.21
-7.72
6.17
18.83
30.00
39.26
46.12
50.05
50.93
49.10
45.47
41.03
36.59
32.86
30.48
30.08
32.18
36.78
43.15
49.94
55.54
58.90
59.72
58.46
56.00
53.10
50.18
47.46
45.11
42.96
40.45
36.53
29.91
19.87
6.92
-6.89
-18.53
-24.93
-24.20
-16.24
-2.67
13.91
30.82
45.96
57.96
66.00
69.59
68.52
63.05
54.10
43.16
31.75
20.92
10.90
1.13
-9.11
-20.05
-30.96
-40.44
-47.00
-49.64
-48.31
-43.77
-37.21
-29.75
-22.21
-15.02
-8.39
-2.57
1.97
4.61
4.73
2.16
-2.49
-7.71
-11.35
-11.39
-6.71
2.35
14.08
26.02
35.94
42.40
44.85
43.36
38.36
30.54
20.92
10.91
2.07
-4.27
-7.55
-8.09
-6.95
-5.28
-3.82
-2.56
-0.80
2.38
7.60
14.67
22.51
29.39
33.44
33.26
28.32
19.17
7.13
-6.08
-18.89
-30.05
-38.87
-45.09
-48.77
-50.35
-50.47
-49.97
-49.73
-50.50
-52.80
-56.73
-61.88
-67.37
-71.94
-74.30
-73.60
-69.69
-63.19
-55.24
-47.12
-39.75
-33.60
-28.83
-25.41
-23.43
-22.95
-23.81
-25.43
-26.89
-27.24
-25.93
-23.12
-19.57
-16.22
-13.66
-11.81
-10.04
-7.57
-3.97
0.58
5.36
9.55
12.57
14.39
15.24
15.60
15.93
16.63
18.13
21.05
25.92
32.79
41.08
49.54
56.85
61.94
64.39
64.27
61.93
57.55
51.20
43.06
33.54
23.46
13.86
5.65
-0.61
-4.84
-7.42
-8.93
-10.03
-11.31
-13.06
-15.31
-17.79
-19.93
-21.39
-22.11
-22.46
-23.01
-24.55
-27.50
-31.93
-37.44
-43.23
-48.42
-52.17
-53.81
-52.87
-48.98
-42.05
-32.53
-21.50
-10.52
-1.03
6.21
11.46
15.56
19.22
22.46
24.32
23.58
19.53
12.55
4.13
-3.81
-9.68
-12.71
-12.88
-10.61
-6.45
-1.00
5.00
10.65
15.04
17.25
16.55
12.27
3.94
-8.52
-24.32
-41.66
-57.83
-70.03
-76.05
-75.03
-67.51
-54.93
-38.98
-21.01
-1.90
18.05
38.73
60.01
81.45
101.82
118.92
129.87
131.90
123.47
105.28
80.50
54.02
30.94
15.03
7.83
8.69
15.60
26.21
38.74
52.17
65.97
79.65
92.31
102.58
108.60
108.57
101.07
85.46
62.19
32.80
-0.17
-33.58
-64.11
-88.98
-106.30
-115.44
-117.08
-113.00
-105.63
-97.40
-90.22
-85.03
-81.79
-79.64
-77.48
-74.39
-69.98
-64.43
-58.22
-51.82
-45.30
-38.33
-30.24
-20.43
-8.57
5.15
20.04
35.03
48.78
59.97
67.36
70.07
67.81
61.07
51.20
40.17
30.16
22.97
19.54
19.70
22.29
25.64
28.20
29.15
28.64
27.65
27.35
28.59
31.41
35.28
39.31
42.52
44.09
43.17
39.10
31.48
20.79
8.64
-2.45
-9.79
-11.64
-7.69
0.73
11.34
21.76
30.15
35.52
37.81
37.56
35.82
33.91
33.06
33.94
36.29
38.68
38.83
34.27
23.30
5.72
-16.91
-41.73
-65.31
-84.65
-97.96
-104.74
-105.75
-102.15
-95.22
-86.16
-76.03
-65.81
-56.28
-47.87
-40.50
-33.85
-27.64
-21.95
-17.24
-14.15
-12.96
-13.32
-14.30
-14.63
-13.28
-9.78
-4.50
1.51
6.89
10.38
11.31
9.79
6.65
3.12
0.27
-1.31
-1.81
-1.84
-2.24
-3.55
-5.73
-8.26
-10.42
-11.47
-10.90
-8.37
-3.71
2.97
11.39
20.94
30.83
40.24
48.54
55.54
61.39
66.49
71.09
75.04
77.84
78.91
78.00
75.41
71.92
68.32
65.09
62.26
59.50
56.37
52.44
47.54
41.44
33.76
24.03
11.90
-2.41
-17.97
-33.24
-46.55
-56.61
-62.92
-65.85
-66.34
-65.51
-64.16
-62.78
-61.60
-60.87
-60.99
-62.32
-64.78
-67.58
-69.49
-69.05
-65.63
-59.62
-52.33
-45.44
-40.05
-36.29
-33.35
-30.15
-25.90
-20.42
-14.11
-7.66
-1.99
2.01
3.56
2.24
-1.68
-7.25
-13.00
-17.52
-19.90
-20.07
-18.57
-16.20
-13.54
-10.85
-8.23
-5.66
-3.11
-0.28
3.26
8.28
15.32
24.47
35.12
45.97
55.50
62.35
65.71
65.39
61.76
55.46
47.25
37.88
28.07
18.55
9.89
2.57
-3.24
-7.65
-10.94
-13.47
-15.45
-16.99
-18.01
-18.41
-18.08
-16.88
-14.72
-11.63
-7.87
-4.01
-0.79
1.19
1.69
1.01
-0.09
-0.74
-0.31
1.45
4.28
7.60
10.69
12.88
13.72
13.06
11.09
8.17
4.63
0.71
-3.43
-7.57
-11.25
-13.81
-14.66
-13.51
-10.63
-6.70
-2.49
1.48
5.15
8.69
12.27
15.78
18.85
21.04
22.15
22.28
21.73
20.71
19.18
16.84
13.31
8.44
2.54
-3.55
-8.72
-11.95
-12.68
-10.97
-7.46
-3.17
0.89
3.81
5.05
4.43
2.13
-1.36
-5.45
-9.57
-13.24
-16.08
-17.70
-17.68
-15.65
-11.46
-5.48
1.41
7.99
13.16
16.34
17.67
17.80
17.49
17.19
16.82
15.88
13.66
9.51
3.02
-5.85
-16.69
-28.60
-40.15
-49.66
-55.44
-56.37
-52.30
-44.05
-33.32
-22.08
-12.19
-4.92
-0.74
0.59
-0.02
-1.36
-2.37
-2.43
-1.67
-0.77
-0.46
-0.89
-1.48
-0.94
1.85
7.21
14.23
21.10
25.99
27.97
27.52
26.23
25.89
27.28
29.75
31.34
30.01
24.73
16.06
6.22
-2.22
-7.20
-8.26
-6.44
-3.66
-1.68
-1.40
-2.73
-5.39
-9.05
-13.46
-18.25
-22.57
-25.20
-25.19
-22.23
-16.96
-10.63
-4.44
0.99
5.73
10.09
14.17
17.53
19.42
19.16
16.74
12.70
8.05
3.75
0.50
-1.37
-2.12
-2.37
-3.16
-5.37
-9.49
-15.32
-22.08
-28.66
-34.00
-37.49
-38.86
-38.04
-35.02
-29.85
-22.71
-14.16
-4.98
4.02
12.16
19.08
24.63
28.84
31.71
33.31
33.81
33.46
32.53
31.04
28.99
26.37
23.19
19.66
15.87
11.88
7.59
3.09
-1.46
-5.88
-10.23
-14.78
-19.67
-24.86
-29.80
-33.50
-34.75
-32.97
-28.46
-22.62
-17.47
-14.72
-14.97
-17.26
-19.56
-19.61
-15.99
-8.90
0.10
8.73
15.20
18.79
19.92
19.67
18.91
18.01
16.78
14.77
11.43
6.41
-0.29
-8.18
-16.59
-24.84
-32.48
-39.54
-46.14
-52.20
-57.01
-59.41
-58.35
-53.56
-45.93
-37.26
-29.50
-23.83
-20.31
-18.01
-15.57
-11.96
-6.91
-1.09
4.39
8.61
11.22
12.60
13.57
14.92
16.92
19.19
21.00
21.65
20.93
19.26
17.36
15.88
15.01
14.41
13.56
12.09
10.08
8.00
6.46
5.72
5.54
5.30
4.29
2.10
-1.21
-5.22
-9.40
-13.23
-16.30
-18.30
-18.95
-18.21
-16.22
-13.36
-10.13
-6.80
-3.45
0.08
3.83
7.78
11.42
14.23
15.77
15.90
14.63
12.30
9.36
6.41
4.29
3.77
5.33
8.78
13.19
17.27
19.95
20.85
20.35
19.30
18.48
18.22
18.32
18.28
17.65
16.21
14.03
11.28
8.16
4.95
2.07
0.11
-0.42
1.05
4.53
9.76
16.02
22.54
28.46
33.26
36.79
39.28
41.13
42.69
44.05
45.03
45.38
44.93
43.80
42.33
40.90
39.69
38.50
37.01
34.80
31.80
28.17
24.29
20.44
16.71
12.97
8.90
4.25
-1.28
-7.86
-15.56
-24.21
-33.34
-42.15
-49.68
-55.12
-58.10
-58.88
-58.11
-56.52
-54.51
-52.02
-48.72
-44.24
-38.65
-32.40
-26.19
-20.62
-15.89
-11.88
-8.21
-4.64
-1.13
2.18
5.26
8.10
10.84
13.54
16.01
18.00
19.22
19.65
19.48
19.01
18.40
17.60
16.49
14.89
12.73
9.99
6.68
2.78
-1.53
-5.92
-9.81
-12.47
-13.35
-12.19
-9.15
-4.65
0.75
6.42
11.83
16.59
20.44
23.23
24.97
25.73
25.58
24.57
22.77
20.34
17.64
15.22
13.67
13.39
14.23
15.47
16.11
15.31
12.91
9.58
6.46
4.57
4.22
4.79
5.03
3.81
0.61
-4.37
-10.41
-16.74
-22.68
-27.83
-31.79
-34.33
-35.09
-33.86
-30.77
-26.23
-21.21
-16.57
-12.97
-10.24
-7.48
-3.45
2.66
10.42
18.01
22.90
23.13
18.46
10.45
1.61
-5.87
-10.87
-13.38
-13.72
-12.05
-8.40
-3.15
2.45
6.56
7.48
4.64
-0.93
-7.08
-11.64
-13.38
-12.54
-10.45
-8.56
-8.12
-9.55
-12.78
-17.27
-22.18
-26.44
-28.98
-29.07
-26.47
-21.56
-15.19
-8.24
-1.51
4.64
10.16
15.16
19.70
23.59
26.49
28.07
28.28
27.29
25.54
23.56
21.86
20.85
20.78
21.69
23.36
25.38
27.14
28.18
28.30
27.78
27.25
27.37
28.41
30.06
31.55
32.06
31.15
28.88
25.73
22.20
18.61
15.03
11.55
8.54
6.55
6.16
7.54
10.24
13.37
15.98
17.42
17.67
17.28
17.02
17.66
19.79
23.80
29.84
37.71
46.69
55.53
62.93
68.03
70.88
72.38
73.69
75.27
76.45
75.50
70.61
60.93
47.11
31.07
14.99
0.14
-13.41
-26.73
-41.18
-57.90
-77.38
-99.28
-122.48
-145.08
-164.56
-178.34
-184.36
-181.80
-171.29
-154.60
-134.03
-111.86
-89.98
-69.96
-53.00
-39.89
-30.69
-24.60
-20.04
-15.17
-8.66
-0.27
9.13
18.06
25.18
29.93
32.66
34.23
35.32
36.16
36.42
35.80
34.35
32.58
30.90
29.15
26.41
21.58
14.23
5.30
-3.19
-9.10
-11.34
-10.54
-8.61
-7.86
-9.74
-14.42
-20.82
-27.30
-32.49
-35.57
-36.19
-34.28
-29.73
-22.56
-13.17
-2.47
8.07
16.90
22.86
25.81
26.58
26.64
27.43
29.72
33.33
37.43
40.95
43.07
43.31
41.54
37.82
32.45
25.96
19.02
12.26
5.84
-0.54
-7.55
-15.79
-25.23
-35.19
-44.62
-52.54
-58.55
-62.90
-66.07
-68.53
-70.39
-71.48
-71.49
-70.18
-67.36
-62.77
-56.16
-47.38
-36.65
-24.80
-13.00
-2.52
5.75
11.61
15.42
17.82
19.38
20.31
20.58
20.09
18.99
17.71
16.81
16.63
17.11
17.87
18.36
18.22
17.45
16.23
14.84
13.37
11.71
9.60
6.90
3.73
0.55
-2.16
-4.14
-5.49
-6.74
-8.47
-10.97
-13.90
-16.39
-17.28
-15.58
-11.03
-4.11
4.08
12.41
19.98
26.41
31.63
35.71
38.62
40.25
40.52
39.56
37.75
35.57
33.47
31.60
29.93
28.40
26.97
25.71
24.80
24.47
24.92
26.15
28.05
30.35
32.85
35.56
38.84
43.30
49.41
57.08
65.32
72.22
75.44
73.01
63.89
48.42
28.10
5.30
-17.26
-37.02
-51.89
-60.76
-63.70
-61.95
-57.52
-52.48
-48.41
-45.92
-44.74
-44.08
-43.10
-41.22
-38.23
-34.25
-29.49
-24.29
-18.98
-13.82
-8.96
-4.47
-0.40
3.14
6.00
8.09
9.44
10.34
11.02
11.61
11.78
10.79
7.60
1.27
-8.60
-21.68
-36.79
-52.22
-66.18
-77.20
-84.41
-87.64
-87.23
-83.93
-78.56
-71.89
-64.58
-57.10
-49.73
-42.37
-34.67
-26.18
-16.56
-5.91
5.16
15.81
25.20
32.75
38.32
42.09
44.47
45.90
46.77
47.43
48.23
49.54
51.60
54.54
58.29
62.61
67.14
71.33
74.40
75.40
73.42
67.72
57.91
44.05
26.56
6.30
-15.50
-37.26
-57.26
-73.88
-85.96
-93.02
-95.39
-93.92
-89.62
-83.35
-75.62
-66.80
-57.23
-47.30
-37.40
-27.90
-19.05
-11.07
-4.22
1.12
4.61
6.18
6.30
6.11
7.09
10.60
17.34
26.98
38.37
49.92
60.15
68.11
73.37
75.78
74.94
70.23
60.92
46.98
29.40
10.32
-7.71
-22.63
-33.66
-41.41
-47.20
-52.13
-56.29
-58.75
-58.14
-53.66
-45.51
-34.61
-22.20
-9.04
4.50
17.94
30.21
39.49
43.99
42.73
36.38
27.21
18.25
12.22
10.66
13.76
20.75
30.65
42.49
55.42
68.25
79.53
87.68
91.48
90.62
85.75
78.19
69.35
60.19
50.95
41.35
30.94
19.44
7.08
-5.63
-18.03
-29.52
-39.67
-48.17
-54.85
-59.50
-61.97
-62.16
-60.01
-55.55
-48.94
-40.60
-31.24
-21.77
-13.04
-5.65
0.38
5.31
9.62
13.62
17.22
19.95
21.25
20.74
18.49
15.07
11.36
8.26
6.42
6.10
7.14
9.00
10.96
12.33
12.66
11.78
9.87
7.27
4.33
1.38
-1.37
-3.90
-6.27
-8.71
-11.58
-15.27
-20.11
-26.10
-32.81
-39.38
-44.75
-47.87
-48.05
-45.11
-39.43
-31.81
-23.26
-14.70
-6.78
0.20
6.24
11.47
15.94
19.68
22.60
24.74
26.24
27.35
28.17
28.68
28.62
27.69
25.78
22.91
19.27
14.98
10.16
5.02
-0.11
-4.74
-8.37
-10.92
-12.71
-14.39
-16.65
-19.85
-24.03
-28.91
-34.22
-39.63
-44.70
-48.76
-50.91
-50.40
-47.04
-41.23
-34.07
-26.78
-20.39
-15.41
-11.92
-9.70
-8.41
-7.67
-7.07
-6.26
-4.97
-3.10
-0.83
1.56
3.81
5.72
7.19
8.21
8.85
9.28
9.68
10.30
11.30
12.67
14.18
15.49
16.29
16.44
16.01
15.23
14.13
12.64
10.46
7.40
3.57
-0.58
-4.37
-7.22
-8.89
-9.37
-8.68
-6.79
-3.48
1.36
7.51
14.19
20.34
25.06
27.89
29.09
29.28
29.13
28.96
28.81
28.61
28.35
28.16
28.14
28.26
28.38
28.41
28.44
28.87
30.16
32.59
36.15
40.58
45.55
50.81
56.26
61.79
67.26
72.47
77.19
81.22
84.28
85.96
85.71
82.86
77.10
68.64
58.23
47.10
36.47
27.30
20.14
15.07
11.85
9.89
8.32
5.95
1.55
-5.87
-16.72
-30.51
-45.93
-61.22
-74.72
-85.20
-92.11
-95.33
-95.12
-91.90
-86.48
-80.03
-73.92
-69.34
-66.78
-65.84
-65.37
-64.09
-61.21
-56.70
-51.23
-45.60
-40.42
-35.93
-32.17
-29.23
-27.26
-26.34
-26.24
-26.40
-26.02
-24.39
-21.07
-16.10
-9.94
-3.32
2.99
8.58
13.39
17.68
21.73
25.53
28.54
29.92
29.00
25.86
21.54
17.64
15.60
16.03
18.50
21.81
24.72
26.40
26.70
25.94
24.33
21.75
17.78
12.01
4.42
-4.43
-13.61
-22.16
-29.46
-35.28
-39.61
-42.32
-43.11
-41.63
-37.73
-31.84
-24.91
-18.14
-12.52
-8.44
-5.71
-3.95
-2.75
-2.01
-1.88
-2.67
-4.51
-7.16
-10.13
-12.68
-14.16
-14.25
-12.80
-10.00
-5.94
-0.65
5.86
13.42
21.47
29.22
35.92
41.26
45.30
48.10
49.27
47.84
42.71
33.51
21.02
7.22
-5.61
-15.86
-23.05
-27.78
-31.10
-33.75
-35.93
-37.38
-37.94
-37.74
-37.37
-37.50
-38.35
-39.57
-40.07
-38.63
-34.32
-27.16
-18.16
-8.92
-0.82
5.61
10.84
15.79
21.05
26.40
30.70
32.72
31.77
28.08
22.67
16.75
11.32
6.96
3.90
2.21
1.61
1.54
1.08
-0.76
-4.54
-10.11
-16.47
-22.36
-26.72
-29.13
-29.78
-29.22
-27.89
-26.00
-23.53
-20.49
-17.14
-13.87
-11.10
-9.20
-8.21
-7.89
-7.74
-7.04
-4.96
-1.02
4.78
11.76
18.70
24.45
28.38
30.66
32.09
33.40
34.86
35.96
35.75
33.38
28.77
22.72
16.59
11.72
8.90
8.04
8.45
9.05
8.95
7.69
5.30
2.22
-1.01
-4.06
-6.90
-9.83
-13.17
-17.04
-21.19
-25.17
-28.54
-31.04
-32.65
-33.60
-33.99
-33.69
-32.35
-29.52
-25.09
-19.24
-12.45
-5.23
2.06
9.20
15.92
21.68
25.85
27.89
27.70
25.77
22.93
20.06
17.67
15.88
14.60
13.79
13.61
14.29
15.69
17.19
17.84
16.72
13.57
8.95
4.12
0.35
-1.66
-1.97
-1.60
-1.86
-3.79
-7.67
-12.95
-18.41
-22.85
-25.58
-26.44
-25.63
-23.21
-18.93
-12.32
-3.26
7.60
18.85
28.53
35.12
38.10
38.07
36.35
34.43
33.24
33.15
34.08
35.61
37.25
38.47
38.83
38.15
36.73
35.16
34.12
33.77
33.84
33.66
32.56
30.43
27.68
25.02
23.05
21.80
20.60
18.11
12.67
2.71
-12.68
-33.21
-57.25
-82.08
-104.53
-121.88
-132.51
-136.13
-133.55
-126.16
-115.53
-102.93
-89.43
-75.65
-62.03
-48.76
-36.03
-24.23
-13.63
-4.41
3.67
11.11
18.49
25.96
33.35
40.36
47.07
54.13
62.45
72.60
83.96
94.76
102.53
105.24
102.09
93.75
81.99
68.73
55.63
43.83
34.07
26.78
22.02
19.32
17.76
16.43
14.58
12.11
9.31
6.43
3.41
-0.24
-5.33
-12.49
-21.84
-33.05
-45.31
-57.44
-68.03
-75.62
-79.16
-78.19
-73.13
-65.18
-55.77
-46.15
-37.03
-28.63
-20.99
-14.18
-8.41
-3.84
-0.55
1.57
2.68
2.93
2.43
1.40
0.16
-0.87
-1.36
-1.21
-0.67
-0.23
-0.41
-1.66
-4.24
-8.13
-13.10
-18.70
-24.28
-29.08
-32.32
-33.61
-32.87
-30.40
-26.55
-21.55
-15.41
-8.09
0.18
8.68
16.36
22.03
24.96
25.11
23.06
19.79
16.29
13.38
11.63
11.43
12.89
15.78
19.49
23.01
25.49
26.44
25.81
23.87
21.07
17.80
14.35
10.99
8.23
6.70
7.12
10.08
15.71
23.79
33.64
44.27
54.51
62.98
68.31
69.21
64.95
55.48
41.49
24.26
5.38
-13.64
-31.57
-47.55
-61.06
-71.66
-78.97
-82.94
-83.65
-81.56
-77.23
-71.31
-64.42
-57.17
-50.12
-43.50
-37.01
-29.91
-21.40
-11.10
0.37
11.56
20.77
26.76
29.27
29.07
27.37
25.07
22.48
19.54
16.28
13.18
11.03
10.67
12.47
16.20
21.05
25.98
29.99
32.20
32.21
29.98
26.02
21.29
16.95
14.20
13.81
15.75
19.35
23.43
26.76
28.55
28.45
26.50
22.86
17.86
11.80
5.39
-0.18
-3.46
-3.12
1.46
9.91
20.94
32.66
43.12
50.65
54.12
53.01
47.46
38.05
25.76
11.75
-2.72
-16.42
-28.34
-37.75
-44.52
-48.88
-51.49
-52.92
-53.48
-53.21
-52.08
-50.24
-48.06
-46.17
-44.88
-44.11
-43.31
-41.91
-39.63
-36.68
-33.49
-30.46
-27.64
-24.66
-20.97
-16.09
-9.94
-2.90
4.38
11.28
17.49
23.17
28.87
35.11
42.07
49.43
56.39
62.17
66.35
69.06
70.97
73.03
75.72
78.81
81.51
82.51
80.68
75.27
65.88
52.48
35.48
16.20
-2.97
-18.85
-28.49
-30.27
-24.84
-14.79
-3.55
5.91
12.02
14.52
13.67
9.50
1.72
-9.75
-24.07
-39.19
-52.60
-62.17
-67.01
-67.66
-65.71
-62.87
-60.53
-59.58
-60.02
-61.43
-63.21
-64.77
-65.90
-66.75
-67.58
-68.49
-69.16
-68.95
-67.21
-63.70
-58.90
-53.61
-48.59
-43.97
-39.38
-34.25
-28.45
-22.50
-17.39
-13.84
-12.01
-11.49
-11.67
-12.24
-13.20
-14.73
-16.54
-17.64
-16.69
-12.58
-5.25
4.32
14.44
23.60
31.03
36.79
41.48
45.68
49.75
53.85
58.19
63.08
68.68
74.71
80.28
84.01
84.59
81.32
74.51
65.39
55.50
46.22
38.31
31.80
26.31
21.28
16.59
12.38
9.13
7.19
6.41
6.08
4.85
1.38
-5.22
-14.84
-26.36
-37.89
-47.35
-53.00
-53.86
-49.76
-41.23
-29.32
-15.38
-1.00
12.15
22.42
28.53
29.85
26.66
20.19
12.41
5.42
0.84
-0.66
0.54
3.38
6.71
9.81
12.67
15.47
18.35
20.84
21.92
20.58
16.39
10.00
2.99
-2.59
-4.96
-3.29
1.99
9.46
17.29
23.93
28.58
31.18
32.09
31.59
29.61
25.75
19.65
11.40
1.62
-8.53
-17.74
-24.99
-29.78
-32.11
-32.47
-31.73
-30.97
-31.48
-34.18
-39.35
-46.35
-53.61
-59.16
-61.28
-59.07
-52.54
-42.63
-30.54
-17.46
-4.32
8.09
19.12
28.27
35.35
40.52
44.13
46.43
47.45
47.07
45.40
42.84
40.16
38.16
37.31
37.63
38.76
40.23
41.64
42.62
42.79
41.66
38.77
33.88
27.03
18.64
9.11
-1.24
-12.03
-22.74
-32.67
-41.02
-47.32
-51.61
-54.37
-56.31
-57.93
-59.19
-59.43
-57.79
-53.57
-46.64
-37.54
-27.37
-17.55
-9.37
-3.86
-1.47
-1.98
-4.36
-6.86
-7.61
-5.18
0.80
9.38
18.63
26.35
30.84
31.28
27.68
20.72
11.47
1.24
-8.26
-15.47
-19.21
-19.23
-16.20
-11.58
-6.97
-3.48
-1.50
-0.81
-0.93
-1.47
-2.34
-3.65
-5.57
-8.15
-11.22
-14.49
-17.55
-20.13
-22.06
-23.36
-24.02
-23.82
-22.56
-20.10
-16.70
-13.03
-9.94
-7.88
-6.52
-4.66
-0.54
7.43
20.08
37.10
57.22
78.48
98.60
115.23
126.08
129.22
123.57
109.46
88.79
64.78
40.98
20.20
3.80
-8.34
-17.14
-23.56
-28.02
-30.48
-30.97
-29.87
-27.98
-26.15
-24.74
-23.56
-22.01
-19.65
-16.56
-13.35
-10.96
-10.09
-10.79
-12.48
-14.12
-14.78
-14.02
-12.03
-9.64
-7.89
-7.62
-9.18
-12.23
-16.06
-19.92
-23.35
-26.37
-29.26
-32.37
-35.70
-38.80
-40.79
-40.71
-37.87
-32.10
-23.92
-14.39
-4.91
3.15
8.78
11.75
12.61
12.70
13.20
14.80
17.08
18.62
17.67
12.98
4.39
-7.31
-20.76
-34.50
-47.10
-56.95
-62.38
-61.99
-55.31
-43.41
-28.84
-14.76
-3.89
2.54
4.92
4.62
3.22
1.81
0.98
0.99
2.17
4.66
8.05
11.20
12.34
9.83
2.78
-8.29
-21.48
-34.14
-43.66
-48.40
-48.14
-43.89
-37.38
-30.40
-24.02
-18.34
-12.62
-5.76
2.92
13.48
25.13
36.70
47.05
55.47
61.80
66.31
69.44
71.66
73.46
75.26
77.38
79.72
81.50
81.34
77.52
68.59
54.10
35.24
14.61
-4.34
-18.45
-26.05
-27.56
-25.15
-21.82
-20.25
-21.79
-26.36
-32.87
-39.95
-46.58
-52.30
-57.05
-60.74
-63.14
-63.99
-63.37
-61.86
-60.30
-59.35
-59.08
-58.80
-57.29
-53.48
-46.94
-37.97
-27.52
-16.51
-5.76
4.33
13.39
21.04
26.91
30.85
33.12
34.38
35.48
36.99
39.00
41.04
42.45
42.69
41.81
40.57
40.09
41.43
44.93
50.16
56.09
61.74
66.69
71.21
75.89
80.99
86.05
89.82
90.82
88.09
81.60
72.23
61.16
49.32
36.85
23.31
8.27
-8.06
-24.41
-38.71
-48.79
-53.17
-51.56
-45.06
-35.56
-25.21
-15.86
-8.79
-4.72
-3.71
-5.28
-8.45
-12.00
-14.74
-15.99
-15.83
-15.03
-14.74
-16.06
-19.61
-25.35
-32.56
-40.09
-46.72
-51.54
-54.12
-54.68
-53.79
-52.24
-50.60
-49.12
-47.60
-45.75
-43.32
-40.41
-37.49
-35.29
-34.48
-35.46
-38.26
-42.57
-47.89
-53.75
-59.74
-65.50
-70.54
-74.31
-76.18
-75.79
-73.03
-68.18
-61.81
-54.44
-46.47
-38.14
-29.66
-21.42
-14.09
-8.37
-4.67
-2.83
-2.02
-1.17
0.62
3.65
7.74
12.38
17.19
22.01
26.81
31.37
35.17
37.51
37.92
36.66
34.57
32.85
32.41
33.42
35.22
36.61
36.61
34.82
31.54
27.54
23.68
20.52
18.26
16.83
15.92
15.21
14.51
13.83
13.44
13.81
15.48
18.95
24.34
31.34
39.14
46.67
52.93
57.23
59.42
59.63
58.19
55.52
51.86
47.39
42.37
37.24
32.66
29.28
27.46
26.91
26.75
25.88
23.51
19.46
14.15
8.19
1.99
-4.44
-11.22
-18.22
-24.82
-30.18
-33.60
-35.02
-35.08
-34.72
-34.73
-35.50
-37.07
-39.46
-42.75
-46.88
-51.26
-54.50
-54.82
-50.66
-41.31
-27.29
-9.95
9.10
28.41
46.97
63.65
77.05
85.64
88.16
84.43
75.55
63.60
50.79
38.64
27.73
17.96
9.19
1.82
-3.40
-5.92
-5.93
-4.75
-4.16
-5.65
-9.64
-15.42
-21.55
-26.60
-29.52
-29.98
-28.16
-24.51
-19.57
-13.93
-8.12
-2.80
1.39
3.90
4.33
2.50
-1.43
-7.10
-13.96
-21.43
-28.98
-36.28
-43.19
-49.53
-55.07
-59.22
-61.24
-60.55
-56.94
-51.05
-44.10
-37.55
-32.57
-29.47
-27.72
-26.33
-24.37
-21.46
-17.85
-14.07
-10.47
-6.89
-2.78
2.59
9.52
17.78
26.55
34.68
41.22
45.89
49.22
52.35
56.38
61.86
68.43
75.00
80.26
83.28
83.71
81.64
77.27
70.63
61.70
50.62
37.77
23.85
9.72
-3.80
-16.00
-26.22
-33.88
-38.54
-40.13
-39.06
-36.27
-33.03
-30.46
-29.24
-29.33
-30.09
-30.59
-29.97
-27.80
-24.15
-19.41
-14.05
-8.14
-1.42
6.67
16.55
28.00
40.17
51.77
61.41
68.11
71.45
71.44
68.27
62.07
52.94
41.10
27.21
12.32
-2.22
-15.29
-26.33
-35.55
-43.77
-51.90
-60.42
-69.17
-77.46
-84.47
-89.66
-92.82
-94.02
-93.23
-90.18
-84.37
-75.55
-64.05
-50.86
-37.33
-24.69
-13.46
-3.55
5.56
14.23
22.47
29.97
36.39
41.74
46.39
50.92
55.83
61.28
67.14
73.06
78.51
82.78
84.82
83.59
78.26
68.60
55.20
39.44
23.12
8.01
-4.69
-14.48
-21.56
-26.62
-30.40
-33.49
-36.13
-38.35
-40.02
-41.12
-41.73
-42.03
-42.09
-41.79
-40.85
-39.09
-36.51
-33.36
-29.81
-25.89
-21.42
-16.14
-9.97
-3.08
3.94
10.30
15.22
18.20
19.18
18.62
17.33
16.15
15.69
16.12
17.15
18.23
18.88
18.99
18.85
18.92
19.48
20.52
21.64
22.38
22.34
21.36
19.47
16.93
14.11
11.31
8.73
6.40
4.26
2.26
0.56
-0.53
-0.76
-0.14
0.85
1.32
0.32
-2.65
-7.51
-13.58
-19.90
-25.62
-30.19
-33.36
-35.01
-35.04
-33.48
-30.64
-27.19
-23.99
-21.84
-21.05
-21.21
-21.23
-19.95
-16.48
-10.76
-3.52
4.21
11.59
18.32
24.57
30.55
36.16
40.82
43.78
44.50
43.09
40.26
36.96
33.89
31.25
28.67
25.58
21.61
16.75
11.35
5.86
0.60
-4.43
-9.41
-14.56
-19.89
-25.10
-29.77
-33.56
-36.42
-38.65
-40.78
-43.37
-46.75
-50.78
-54.89
-58.11
-59.28
-57.48
-52.33
-44.26
-34.55
-24.90
-16.95
-11.75
-9.39
-9.09
-9.52
-9.18
-6.92
-2.29
4.42
12.31
20.26
27.28
32.87
37.01
40.08
42.52
44.66
46.59
48.15
48.99
48.84
47.46
44.77
40.85
35.76
29.51
22.16
13.97
5.43
-2.94
-10.83
-18.30
-25.67
-33.19
-40.61
-47.06
-51.48
-53.04
-51.65
-48.04
-43.30
-38.55
-34.43
-31.20
-28.92
-27.58
-27.07
-26.90
-26.19
-23.76
-18.65
-10.68
-0.44
10.90
22.13
32.54
42.03
50.96
59.74
68.42
76.51
83.14
87.28
88.11
85.31
79.08
70.05
59.03
46.77
33.76
20.37
6.92
-5.99
-17.38
-26.14
-31.42
-33.03
-31.50
-27.73
-22.50
-16.23
-9.06
-1.07
7.32
15.54
23.10
29.87
36.12
42.01
47.14
50.24
49.44
43.02
30.32
12.27
-8.66
-29.08
-45.70
-56.10
-59.27
-55.49
-46.26
-33.71
-20.24
-8.17
0.72
5.38
5.75
2.82
-1.83
-6.43
-9.56
-10.55
-9.48
-6.91
-3.54
0.08
3.68
7.31
11.19
15.62
20.82
26.77
33.17
39.44
44.91
48.96
51.07
50.78
47.68
41.60
32.74
22.01
10.87
0.87
-6.96
-12.68
-17.50
-23.19
-31.28
-42.30
-55.42
-68.83
-80.20
-87.53
-89.59
-86.04
-77.31
-64.26
-48.08
-30.02
-11.55
5.89
20.96
32.82
41.37
47.28
51.74
55.87
60.33
64.92
68.83
71.07
70.79
67.66
61.67
53.03
42.02
29.09
14.98
0.85
-11.75
-21.52
-27.62
-30.14
-30.02
-28.72
-27.75
-28.26
-30.86
-35.42
-41.26
-47.28
-52.29
-55.32
-55.92
-54.20
-50.79
-46.55
-42.29
-38.73
-36.43
-35.88
-37.34
-40.65
-45.00
-48.97
-50.94
-49.63
-44.67
-36.61
-26.64
-16.01
-5.32
5.44
16.81
29.33
43.03
57.33
71.16
83.29
92.55
97.97
98.74
94.33
84.64
70.31
52.82
34.33
17.29
3.64
-5.54
-10.31
-11.54
-10.51
-8.56
-6.90
-6.66
-8.60
-12.94
-19.10
-25.68
-30.82
-32.86
-31.05
-25.90
-19.07
-12.85
-9.28
-9.49
-13.32
-19.43
-25.90
-30.86
-33.01
-31.98
-28.16
-22.38
-15.54
-8.34
-1.35
4.84
9.54
11.97
11.63
8.50
3.23
-3.12
-9.56
-15.53
-21.07
-26.68
-32.97
-40.20
-48.16
-56.22
-63.54
-69.32
-72.87
-73.60
-71.00
-64.88
-55.52
-43.83
-31.18
-18.98
-8.22
0.79
8.29
14.81
20.57
25.42
28.78
30.02
28.89
25.74
21.57
17.68
15.46
16.00
19.92
27.30
37.67
50.14
63.47
76.37
87.57
96.04
100.94
101.71
98.02
89.99
78.32
64.34
49.81
36.50
25.62
17.53
11.77
7.52
4.15
1.61
0.40
1.08
3.81
8.10
12.91
17.23
20.51
22.86
24.96
27.50
30.70
33.99
36.18
35.90
32.22
25.06
15.10
3.53
-8.42
-19.86
-30.07
-38.44
-44.22
-46.67
-45.40
-40.78
-34.09
-27.28
-22.29
-20.38
-21.74
-25.67
-30.93
-36.22
-40.60
-43.52
-44.85
-44.71
-43.55
-42.01
-40.80
-40.41
-40.97
-42.18
-43.47
-44.34
-44.55
-44.23
-43.73
-43.42
-43.41
-43.64
-43.89
-43.95
-43.73
-43.22
-42.35
-41.14
-39.66
-38.18
-37.08
-36.59
-36.49
-35.99
-33.89
-29.09
-21.14
-10.58
1.24
12.63
22.18
29.18
33.57
35.63
35.65
33.77
30.23
25.66
21.14
17.96
17.17
18.93
22.32
25.65
27.10
25.54
20.84
13.82
5.84
-1.71
-7.89
-12.12
-14.15
-13.84
-11.10
-6.22
0.23
7.38
14.37
20.63
25.97
30.42
33.92
36.22
36.83
35.18
30.93
24.22
15.80
7.06
-0.33
-4.80
-5.35
-1.93
4.54
12.32
19.48
24.50
26.63
25.95
23.00
18.62
13.58
8.80
5.21
3.70
4.85
8.59
14.37
21.23
28.30
35.02
41.15
46.55
50.80
53.12
52.59
48.54
40.84
30.11
17.40
3.88
-9.54
-22.36
-34.31
-45.27
-55.10
-63.64
-70.80
-76.49
-80.70
-83.30
-84.08
-82.82
-79.41
-74.01
-67.01
-58.90
-50.24
-41.37
-32.52
-23.71
-14.92
-6.21
2.25
10.27
17.71
24.52
30.71
36.23
40.98
44.80
47.72
49.99
52.17
54.80
58.10
61.77
64.88
66.22
64.66
59.58
51.00
39.47
25.89
11.28
-3.43
-17.53
-30.62
-42.48
-52.94
-61.67
-68.16
-71.77
-71.92
-68.21
-60.70
-49.98
-37.09
-23.37
-10.11
1.83
12.33
21.96
31.65
42.23
53.96
66.30
78.22
88.64
96.89
102.91
106.97
109.33
109.80
107.84
102.76
94.11
82.02
67.15
50.49
33.05
15.73
-0.68
-15.30
-27.22
-35.99
-42.06
-47.15
-53.66
-63.72
-77.86
-94.48
-110.31
-121.74
-126.44
-124.21
-116.70
-106.19
-94.48
-82.05
-68.45
-53.15
-36.20
-18.62
-1.79
13.04
25.37
35.36
43.40
49.74
54.07
55.74
54.11
49.05
41.13
31.56
21.85
13.41
7.10
3.01
0.63
-1.11
-3.28
-6.70
-11.71
-18.03
-25.01
-31.82
-37.87
-42.83
-46.81
-50.21
-53.46
-56.84
-60.23
-63.00
-64.11
-62.49
-57.35
-48.50
-36.46
-22.19
-6.83
8.73
23.78
37.83
50.29
60.56
67.96
72.17
73.34
72.16
69.65
66.70
63.96
61.68
59.79
58.03
56.05
53.50
50.01
45.21
38.91
31.20
22.49
13.47
4.71
-3.41
-10.78
-17.39
-23.09
-27.66
-30.96
-33.22
-35.11
-37.42
-40.67
-44.81
-49.10
-52.39
-53.56
-51.79
-46.81
-38.75
-28.15
-15.81
-2.74
9.94
21.24
30.51
37.50
42.26
45.04
46.16
46.03
45.30
44.66
44.76
45.93
48.01
50.52
53.01
55.36
57.90
61.21
65.73
71.56
78.37
85.72
93.05
99.60
104.07
104.51
98.67
84.73
62.28
32.73
-0.82
-34.51
-64.88
-89.83
-108.93
-123.00
-133.46
-141.61
-148.14
-152.98
-155.53
-154.97
-150.75
-142.92
-132.17
-119.74
-106.99
-95.05
-84.53
-75.41
-67.26
-59.47
-51.52
-43.08
-34.03
-24.43
-14.37
-4.06
6.19
16.00
25.05
33.26
40.86
48.23
55.72
63.32
70.48
76.27
79.65
79.81
76.39
69.56
59.91
48.35
36.05
24.17
13.63
4.94
-1.95
-7.59
-12.73
-17.87
-22.95
-27.39
-30.29
-30.94
-29.13
-25.14
-19.51
-12.82
-5.39
2.69
11.25
20.00
28.41
35.84
41.64
45.41
46.77
45.46
41.22
33.94
24.00
12.38
0.49
-10.24
-18.85
-25.21
-29.81
-33.41
-36.45
-38.83
-40.10
-39.82
-37.99
-35.21
-32.34
-30.16
-29.06
-28.93
-29.36
-29.85
-29.98
-29.46
-28.27
-26.49
-24.40
-22.29
-20.34
-18.34
-15.81
-12.06
-6.56
0.76
9.35
18.26
26.34
32.56
36.32
37.39
35.97
32.64
28.27
23.91
20.47
18.54
18.23
19.22
20.97
22.94
24.87
26.65
28.36
30.05
31.77
33.49
35.27
37.14
38.84
39.66
38.44
33.91
25.26
12.70
-2.47
-18.02
-31.59
-41.40
-46.70
-47.98
-46.55
-43.99
-41.64
-40.26
-39.98
-40.51
-41.26
-41.55
-40.76
-38.37
-34.04
-27.79
-20.09
-11.98
-5.01
-0.84
-0.72
-5.05
-13.15
-23.49
-34.10
-43.13
-49.25
-51.84
-50.99
-47.40
-41.96
-35.58
-28.86
-22.08
-15.17
-8.00
-0.59
6.71
13.37
18.98
23.61
27.81
32.43
38.14
45.11
52.84
60.35
66.48
70.00
69.89
65.38
56.11
42.38
25.30
6.82
-10.63
-24.94
-34.86
-40.29
-42.13
-41.52
-39.32
-35.73
-30.56
-23.62
-14.99
-5.20
5.17
15.74
26.54
37.96
50.45
64.25
79.24
94.97
110.79
126.10
140.35
153.10
163.74
171.43
174.89
172.68
163.57
147.18
124.33
97.01
68.04
40.17
15.61
-4.46
-19.70
-30.50
-37.69
-42.40
-45.87
-49.50
-54.44
-61.48
-70.63
-80.84
-90.27
-96.71
-98.38
-94.73
-86.71
-76.49
-66.63
-59.03
-54.41
-52.25
-51.37
-50.58
-49.25
-47.36
-45.27
-43.34
-41.81
-40.76
-40.18
-39.98
-39.81
-39.38
-38.41
-36.88
-35.05
-33.38
-32.23
-31.79
-31.99
-32.67
-33.76
-35.24
-37.13
-39.40
-41.94
-44.59
-47.27
-50.06
-53.03
-56.14
-58.99
-60.97
-61.31
-59.49
-55.42
-49.32
-41.72
-33.05
-23.62
-13.55
-2.82
8.51
20.34
32.30
43.92
54.60
63.78
71.24
77.20
82.39
87.66
93.63
100.13
106.35
111.07
113.27
112.82
110.42
107.34
104.54
102.29
99.78
95.81
89.44
80.58
70.21
59.98
51.60
46.23
44.04
44.05
44.48
43.31
38.84
30.57
19.29
7.07
-3.41
-9.56
-9.74
-3.70
7.23
20.57
33.51
43.38
48.48
48.18
42.81
33.43
21.29
7.63
-6.53
-20.15
-32.29
-42.06
-48.73
-51.97
-51.76
-48.34
-41.99
-32.96
-21.54
-8.43
5.14
17.50
26.58
30.60
28.45
20.16
6.94
-9.09
-25.55
-40.49
-52.95
-63.21
-72.43
-82.04
-92.97
-104.85
-115.91
-123.48
-125.06
-119.39
-107.09
-90.26
-71.66
-53.51
-36.76
-21.01
-5.16
11.76
29.89
48.32
65.08
77.53
82.87
78.87
64.86
42.37
15.22
-11.20
-31.56
-42.18
-42.01
-32.51
-16.60
2.76
23.29
43.45
61.82
76.62
85.92
88.41
84.21
75.16
64.28
54.62
48.32
46.14
47.65
51.70
56.83
61.47
63.98
62.94
57.46
47.63
34.61
20.27
6.47
-5.39
-14.87
-22.22
-28.26
-34.00
-40.35
-47.82
-56.24
-64.75
-72.06
-77.20
-80.10
-81.50
-82.82
-85.22
-88.99
-93.57
-97.75
-100.33
-100.50
-97.88
-92.40
-84.26
-73.97
-62.44
-50.95
-40.82
-32.91
-27.37
-23.65
-20.90
-18.58
-16.55
-15.33
-15.74
-18.52
-23.91
-31.42
-39.63
-46.61
-50.33
-49.16
-42.39
-30.39
-14.47
3.34
20.74
35.66
46.63
53.17
55.97
56.47
56.45
57.46
60.34
65.20
71.57
78.78
86.12
93.11
99.49
105.15
110.02
113.66
115.04
112.47
103.97
88.10
64.84
35.96
4.76
-24.95
-50.07
-68.92
-81.20
-87.42
-88.24
-84.11
-75.46
-63.21
-48.95
-34.82
-22.90
-14.53
-10.05
-8.94
-10.39
-13.76
-18.72
-25.09
-32.56
-40.43
-47.70
-53.34
-56.65
-57.42
-56.03
-53.21
-49.80
-46.60
-44.15
-42.67
-42.08
-41.96
-41.84
-41.35
-40.36
-39.07
-37.78
-36.68
-35.54
-33.79
-30.78
-26.11
-19.96
-13.06
-6.57
-1.79
0.15
-1.42
-6.28
-13.13
-19.81
-23.85
-23.36
-17.66
-7.48
5.37
18.91
31.62
42.72
52.02
59.46
64.95
68.41
70.20
71.20
72.54
74.99
78.47
82.01
84.30
84.40
82.25
78.70
74.98
72.08
70.10
68.18
64.71
58.04
47.10
31.81
13.28
-6.64
-25.91
-43.04
-57.63
-70.17
-81.71
-93.08
-104.26
-114.38
-122.12
-126.21
-125.91
-121.11
-112.18
-99.90
-85.26
-69.43
-53.72
-39.39
-27.43
-18.30
-12.01
-8.04
-5.69
-4.17
-2.79
-1.07
1.26
4.26
7.89
12.07
16.65
21.34
25.80
29.66
32.76
35.27
37.58
40.16
43.15
46.36
49.26
51.38
52.61
53.21
53.71
54.51
55.58
56.30
55.64
52.67
46.99
38.92
29.38
19.52
10.37
2.57
-3.50
-7.64
-9.53
-8.88
-5.65
-0.23
6.53
13.45
19.42
23.64
25.78
25.97
24.62
22.43
20.08
18.13
16.85
16.15
15.77
15.50
15.29
15.28
15.51
15.80
15.70
14.75
12.81
10.13
7.34
5.10
3.78
3.37
3.49
3.55
3.04
1.61
-0.92
-4.49
-8.88
-13.67
-18.31
-22.18
-24.60
-25.10
-23.45
-19.89
-15.18
-10.53
-7.37
-6.73
-8.94
-13.32
-18.44
-22.62
-24.66
-24.17
-21.66
-18.07
-14.21
-10.41
-6.48
-2.08
3.08
8.91
15.26
22.16
30.02
39.46
50.80
63.68
76.93
88.94
98.30
104.29
106.93
106.62
103.76
98.45
90.50
79.66
65.75
48.81
29.20
7.66
-14.63
-36.05
-54.85
-69.56
-79.50
-84.91
-86.63
-85.74
-83.05
-79.17
-74.44
-69.29
-64.20
-59.55
-55.46
-51.76
-48.18
-44.57
-41.04
-37.84
-35.18
-32.94
-30.71
-27.90
-24.16
-19.56
-14.60
-9.98
-6.24
-3.62
-1.92
-0.70
0.53
2.10
3.99
5.83
6.74
5.53
0.90
-8.21
-22.08
-39.87
-59.51
-78.06
-92.34
-99.79
-99.16
-90.72
-76.13
-57.79
-38.14
-19.06
-1.76
13.18
25.47
34.98
41.81
46.35
49.41
52.04
55.07
58.81
62.71
65.77
66.99
65.93
63.06
59.56
56.79
55.68
56.43
58.68
61.79
65.19
68.57
71.69
74.34
76.18
76.83
76.17
74.19
71.03
66.60
60.59
52.51
42.07
29.68
16.48
4.18
-5.51
-11.34
-13.02
-10.96
-6.05
0.77
8.76
17.29
25.85
33.81
40.57
45.68
48.96
50.56
50.83
50.20
48.93
47.01
44.15
39.82
33.42
24.54
13.14
-0.41
-15.52
-31.60
-48.20
-64.94
-81.31
-96.51
-109.52
-119.48
-126.00
-129.14
-129.39
-127.08
-122.37
-115.26
-105.89
-94.90
-83.16
-71.63
-60.86
-50.88
-41.63
-33.32
-26.75
-22.98
-22.73
-25.94
-31.42
-37.40
-42.12
-44.41
-44.07
-41.61
-38.02
-34.18
-30.70
-27.84
-25.73
-24.54
-24.60
-26.33
-30.01
-35.48
-41.89
-47.87
-51.85
-52.62
-49.72
-43.66
-35.63
-27.05
-19.13
-12.53
-7.32
-3.17
0.31
3.33
5.69
6.96
6.84
5.57
4.24
4.45
7.84
15.18
26.02
38.72
51.13
61.47
68.86
73.51
76.24
77.96
79.15
79.68
79.06
76.78
72.72
67.37
61.79
57.30
55.01
55.41
58.13
62.15
66.26
69.57
71.80
73.23
74.34
75.54
77.07
78.95
81.19
83.55
85.50
86.00
83.75
77.57
66.87
52.00
34.05
14.57
-4.95
-23.40
-40.09
-54.54
-66.27
-74.80
-79.82
-81.47
-80.50
-78.07
-75.35
-73.10
-71.53
-70.36
-69.24
-67.94
-66.54
-65.22
-64.08
-63.12
-62.18
-61.22
-60.37
-59.77
-59.42
-59.20
-58.84
-58.31
-57.91
-58.10
-59.37
-61.94
-65.54
-69.65
-73.64
-77.04
-79.64
-81.43
-82.39
-82.22
-80.30
-75.60
-66.92
-52.90
-32.47
-5.04
29.24
69.14
112.25
155.16
193.86
224.63
244.87
253.78
252.61
244.21
232.01
218.92
206.53
195.05
183.67
171.33
157.17
140.87
122.50
102.41
81.30
60.04
39.83
21.91
7.26
-3.60
-10.73
-14.64
-16.19
-16.30
-15.99
-16.25
-17.88
-21.29
-26.38
-32.72
-39.94
-47.90
-56.78
-66.83
-77.90
-89.30
-99.83
-108.21
-113.53
-115.48
-114.37
-110.91
-106.01
-100.57
-95.43
-91.29
-88.62
-87.54
-87.75
-88.61
-89.29
-89.03
-87.30
-83.94
-79.08
-73.06
-66.33
-59.31
-52.42
-46.02
-40.47
-36.19
-33.58
-32.98
-34.44
-37.56
-41.51
-45.23
-47.81
-48.73
-48.06
-46.43
-44.66
-43.56
-43.59
-44.71
-46.46
-48.01
-48.32
-46.40
-41.39
-32.95
-21.38
-7.57
7.20
21.76
35.37
47.89
59.58
70.63
80.84
89.53
95.70
98.70
98.59
96.42
93.95
93.04
94.88
99.32
104.74
108.52
107.98
101.44
88.90
72.04
53.56
36.22
21.89
11.22
3.62
-2.34
-8.33
-15.74
-25.24
-36.54
-48.69
-60.44
-70.79
-79.29
-86.03
-91.11
-94.24
-94.49
-90.70
-81.87
-67.52
-47.43
-21.06
12.31
52.73
98.38
145.07
187.16
219.85
241.40
253.99
262.63
272.52
286.64
304.71
324.02
341.23
353.83
360.63
360.94
353.78
337.69
311.41
275.02
230.93
183.90
140.05
105.24
82.83
72.35
69.54
67.84
60.94
45.10
20.03
-11.70
-46.39
-80.70
-112.31
-139.91
-162.95
-181.60
-196.81
-210.05
-222.51
-234.06
-242.90
-246.13
-241.17
-227.15
-205.33
-178.58
-150.25
-123.17
-99.41
-80.59
-68.08
-62.86
-64.99
-73.23
-85.11
-97.60
-107.90
-114.26
-116.40
-115.34
-113.00
-111.28
-111.28
-112.92
-114.84
-115.01
-111.62
-103.76
-91.77
-77.09
-61.83
-48.26
-38.39
-33.65
-34.75
-41.50
-52.69
-66.25
-79.61
-90.16
-95.90
-95.92
-90.56
-81.29
-70.32
-60.03
-52.45
-48.93
-50.07
-55.63
-64.60
-75.33
-85.82
-94.21
-99.31
-100.85
-99.55
-96.37
-92.01
-86.49
-79.34
-70.26
-59.53
-48.06
-36.96
-27.04
-18.50
-11.16
-4.80
0.60
5.00
8.59
11.76
14.93
18.03
20.42
21.02
18.99
14.28
7.88
1.44
-3.43
-5.80
-5.49
-2.89
1.52
7.37
14.50
22.64
31.28
39.55
46.47
51.27
53.70
54.05
53.05
51.51
49.99
48.62
47.19
45.44
43.16
40.58
38.25
36.87
37.06
38.91
41.91
45.17
47.84
49.55
50.64
51.90
54.09
57.47
61.67
65.69
68.25
67.96
63.50
54.13
40.26
23.96
8.92
-0.46
-0.75
9.11
27.41
50.57
74.92
97.99
118.90
137.65
153.94
166.84
175.19
178.65
178.35
176.52
175.36
175.79
177.15
177.69
175.73
170.67
163.09
154.27
145.28
136.34
126.76
115.44
101.55
85.06
66.84
48.51
31.88
18.56
9.66
5.83
7.05
12.37
19.64
25.59
26.74
20.80
7.91
-9.03
-25.49
-37.20
-41.99
-40.56
-35.68
-30.72
-28.06
-28.75
-32.78
-39.97
-50.26
-63.31
-78.09
-92.89
-106.09
-117.19
-127.34
-138.72
-153.37
-171.68
-192.04
-211.46
-226.82
-235.99
-238.10
-233.16
-221.31
-202.78
-178.33
-150.01
-121.27
-96.17
-77.82
-67.25
-63.18
-63.00
-64.41
-66.65
-70.57
-77.80
-89.11
-103.50
-118.07
-128.83
-132.07
-125.50
-108.84
-83.59
-52.45
-18.37
16.16
49.61
81.25
110.66
137.25
159.98
177.69
189.55
195.47
195.98
191.76
182.96
169.02
148.93
121.93
88.10
48.46
4.87
-40.37
-84.77
-125.85
-161.34
-189.54
-209.58
-221.55
-226.18
-224.47
-217.25
-205.22
-189.21
-170.45
-150.65
-131.63
-114.81
-100.91
-89.86
-81.09
-73.84
-67.37
-61.03
-54.23
-46.51
-37.64
-27.75
-17.39
-7.46
1.13
7.67
11.89
13.94
14.20
13.09
10.91
7.82
3.89
-0.63
-5.20
-9.07
-11.41
-11.67
-9.74
-6.04
-1.39
3.15
6.67
8.50
8.33
6.06
1.68
-4.81
-13.36
-23.65
-34.96
-46.10
-55.52
-61.71
-63.48
-60.34
-52.53
-40.90
-26.58
-10.65
6.07
23.09
39.97
56.21
71.05
83.57
93.04
99.36
103.23
105.99
109.16
113.82
120.36
128.47
137.62
147.06
155.61
161.03
160.15
149.65
127.79
95.88
58.66
22.66
-6.10
-24.60
-33.65
-36.84
-38.37
-41.02
-45.26
-49.85
-53.12
-54.08
-52.81
-49.96
-46.07
-41.22
-35.09
-27.35
-18.03
-7.85
1.91
9.90
15.24
17.86
18.51
18.38
18.47
19.10
20.02
20.55
20.22
19.01
17.36
15.90
15.00
14.55
14.00
12.67
10.04
5.93
0.57
-5.58
-12.06
-18.55
-25.13
-32.20
-40.28
-49.60
-59.68
-69.25
-76.43
-79.36
-77.09
-69.99
-59.73
-48.58
-38.28
-29.46
-21.56
-13.44
-4.29
5.88
16.13
25.18
32.17
37.10
40.74
44.08
47.82
52.16
57.20
63.43
71.63
82.04
93.01
100.80
100.36
87.80
62.73
29.14
-5.86
-34.99
-53.80
-61.83
-61.72
-57.39
-51.81
-46.52
-42.02
-38.82
-37.86
-40.07
-45.48
-52.53
-58.38
-60.06
-55.53
-44.65
-29.32
-12.60
2.37
13.63
20.92
25.50
29.15
33.26
38.00
42.85
47.02
50.30
53.29
57.08
62.51
69.69
77.74
85.27
91.26
95.46
98.58
101.73
105.53
109.58
112.57
112.89
109.59
102.92
94.29
85.43
77.60
71.07
65.28
59.46
53.26
46.97
41.48
37.82
36.63
37.98
41.20
45.17
48.66
50.72
51.04
49.99
48.56
47.89
48.88
51.81
56.23
61.38
66.44
70.86
74.34
76.48
76.59
73.85
67.55
57.72
45.44
32.74
22.07
15.56
14.39
18.52
26.86
37.75
49.63
61.47
72.90
84.00
94.58
103.83
110.03
111.08
105.65
94.03
78.46
62.53
49.79
42.39
40.47
42.48
46.35
50.33
53.37
54.65
52.92
46.42
33.48
13.69
-11.49
-39.00
-65.58
-89.12
-109.23
-126.53
-141.43
-153.10
-159.70
-159.63
-152.86
-141.47
-128.93
-118.44
-111.71
-108.63
-107.84
-108.11
-109.00
-111.02
-114.79
-120.58
-127.72
-134.68
-139.65
-141.10
-138.17
-130.91
-119.99
-106.37
-90.81
-73.72
-55.39
-36.64
-19.08
-5.11
2.65
2.57
-4.74
-16.32
-27.68
-34.76
-35.75
-31.66
-25.71
-21.45
-20.91
-24.18
-29.54
-35.06
-39.30
-41.97
-43.13
-42.82
-41.14
-38.32
-35.17
-32.99
-32.86
-35.01
-38.36
-40.97
-40.81
-36.25
-26.33
-12.07
3.79
16.95
23.37
20.99
11.44
-0.38
-8.23
-7.55
2.36
18.46
36.03
51.23
63.13
72.98
82.59
92.32
100.85
105.88
105.86
101.23
93.84
86.00
79.70
75.71
73.73
72.76
71.09
67.12
59.71
48.72
35.88
23.85
15.25
11.01
9.99
9.25
5.82
-1.69
-12.61
-24.62
-35.11
-42.27
-45.27
-43.82
-38.02
-28.58
-17.18
-6.77
-0.50
-0.11
-4.93
-11.77
-16.43
-16.04
-9.77
0.67
12.16
21.89
28.16
30.74
30.74
29.71
29.09
29.80
31.88
34.70
37.69
40.55
43.50
47.09
51.24
55.16
57.73
58.33
57.52
57.22
59.40
64.54
70.96
74.86
71.95
59.69
38.49
11.86
-14.68
-36.15
-49.65
-55.26
-55.85
-55.67
-58.48
-66.51
-79.91
-96.91
-114.67
-129.72
-138.20
-136.57
-122.31
-95.43
-59.75
-22.25
9.04
28.11
33.31
27.75
17.20
7.30
1.36
-0.59
-0.59
-0.94
-2.66
-5.13
-6.80
-6.38
-3.57
0.90
5.71
9.72
12.20
12.71
11.26
8.18
4.00
-0.20
-2.86
-1.96
4.65
18.32
38.94
65.00
93.63
121.43
145.20
162.24
170.51
168.98
157.95
138.74
113.82
86.02
58.09
32.31
10.68
-4.92
-12.70
-11.26
-0.80
16.46
36.08
52.81
62.56
64.19
60.36
56.54
58.71
70.67
92.17
118.92
144.04
160.75
164.39
153.81
131.05
100.31
66.39
33.67
5.41
-16.70
-32.12
-41.69
-47.10
-50.47
-53.46
-56.64
-59.43
-60.83
-60.75
-60.58
-63.10
-71.24
-86.63
-108.37
-133.37
-157.29
-176.22
-188.17
-193.36
-193.66
-191.06
-186.47
-179.53
-169.16
-155.29
-139.49
-124.98
-115.09
-111.84
-114.62
-120.25
-124.49
-123.80
-117.24
-106.91
-97.28
-93.25
-97.90
-110.85
-128.20
-144.43
-155.24
-160.02
-161.86
-165.35
-172.71
-181.64
-185.96
-179.21
-158.63
-127.34
-92.72
-62.19
-39.53
-23.78
-10.88
2.68
17.52
31.20
40.19
41.93
36.31
25.13
10.90
-3.88
-17.06
-26.30
-29.08
-23.35
-8.70
12.61
36.12
56.54
69.94
75.03
73.16
67.45
60.87
55.41
51.79
49.89
49.68
51.05
53.28
54.71
52.90
46.11
35.08
23.18
15.69
17.12
28.99
48.68
70.79
89.93
103.36
112.13
119.79
129.87
143.26
157.37
167.46
168.92
159.92
142.37
121.15
102.06
89.35
84.39
85.31
88.84
91.91
92.86
91.52
88.31
83.41
76.43
66.66
53.97
39.45
24.55
10.46
-2.81
-16.40
-31.52
-48.63
-67.02
-85.42
-102.76
-118.75
-133.77
-148.13
-161.58
-172.55
-178.75
-177.94
-168.69
-151.28
-128.35
-104.21
-84.03
-72.35
-70.65
-76.77
-85.44
-90.60
-88.27
-78.25
-63.53
-47.86
-33.64
-20.51
-6.40
10.18
28.31
43.90
51.89
48.84
35.04
14.65
-6.38
-22.70
-31.64
-32.93
-28.18
-19.41
-8.48
2.62
11.71
16.49
14.97
6.62
-6.92
-22.21
-34.94
-41.30
-39.27
-28.96
-12.24
7.83
27.93
45.75
60.28
72.09
82.64
92.91
102.49
109.35
110.83
105.16
92.86
76.81
61.28
50.44
46.46
49.23
56.63
65.86
74.23
79.89
81.85
79.64
73.33
63.62
52.19
41.61
34.51
32.99
37.54
46.72
57.50
66.17
69.48
65.75
55.10
39.17
20.22
0.36
-19.20
-37.87
-55.65
-72.71
-89.08
-104.72
-119.20
-131.53
-140.40
-144.71
-144.14
-139.22
-131.62
-122.99
-114.14
-104.56
-92.78
-77.57
-58.90
-38.31
-18.57
-2.12
9.98
18.28
24.53
30.68
37.54
44.26
48.48
47.12
38.37
23.21
5.57
-9.36
-17.46
-17.69
-12.36
-5.50
-0.68
0.73
-0.52
-3.14
-6.49
-10.52
-15.04
-18.76
-19.10
-13.67
-1.82
14.50
31.48
45.49
53.83
55.72
51.79
43.71
33.65
24.38
17.86
14.51
13.10
10.91
5.99
-1.17
-7.11
-7.29
1.08
16.83
34.80
48.64
53.78
49.95
40.71
30.84
23.47
18.76
15.15
11.27
7.66
6.13
8.08
13.21
18.99
22.72
23.18
21.66
21.28
25.32
35.12
50.12
68.10
86.55
103.67
118.49
130.64
139.81
145.76
148.44
148.29
146.18
143.05
139.77
136.32
131.92
125.57
117.11
107.98
101.24
100.18
106.62
119.48
134.69
146.49
149.96
142.66
125.01
99.31
68.00
32.58
-6.02
-47.02
-88.77
-128.77
-164.44
-194.15
-217.59
-235.53
-249.07
-258.38
-262.42
-259.29
-247.36
-226.36
-198.28
-166.79
-136.27
-110.51
-91.30
-78.55
-70.41
-64.85
-60.60
-57.59
-56.37
-56.90
-57.72
-55.83
-48.17
-33.26
-12.32
10.64
30.68
44.09
49.72
49.07
45.06
40.15
35.57
31.27
27.21
24.40
24.55
28.90
36.64
44.47
47.29
40.90
24.31
0.82
-22.80
-39.52
-44.95
-39.11
-25.89
-10.49
3.13
13.77
22.66
31.89
42.72
54.75
66.41
76.06
82.77
86.94
89.82
92.65
96.21
100.38
104.52
107.66
108.62
106.36
100.04
89.20
73.85
54.59
32.44
8.37
-16.41
-40.95
-64.43
-86.24
-106.48
-125.68
-144.31
-162.15
-178.18
-190.45
-196.69
-195.66
-187.70
-174.97
-160.48
-147.02
-136.05
-127.22
-118.90
-108.85
-95.33
-77.09
-53.99
-26.81
2.10
29.01
49.65
60.52
60.31
50.29
34.21
16.34
0.90
-9.33
-13.47
-11.96
-6.86
-1.01
2.82
3.12
0.39
-2.52
-2.03
3.78
13.51
22.42
25.06
18.25
3.22
-15.28
-32.13
-45.35
-57.19
-71.84
-91.59
-113.58
-129.92
-130.83
-110.50
-70.82
-21.37
24.70
57.09
72.37
74.48
71.09
68.43
68.33
68.45
65.18
57.03
45.39
33.82
25.94
23.41
25.49
29.86
34.06
36.58
37.14
36.02
33.79
31.02
27.86
24.39
20.47
16.11
11.57
7.03
2.54
-2.37
-8.25
-15.38
-23.08
-29.81
-34.02
-34.75
-32.05
-26.72
-19.89
-12.25
-4.20
3.92
11.42
17.36
21.21
22.85
22.79
21.59
19.52
16.67
13.29
10.29
9.07
10.95
16.29
23.94
31.65
36.97
38.85
38.04
36.52
36.20
37.49
38.72
37.35
31.72
22.48
12.66
5.89
4.33
7.01
10.20
9.65
2.92
-9.11
-23.02
-34.40
-40.15
-39.45
-33.37
-23.99
-13.19
-2.38
7.68
16.49
23.87
29.83
34.55
38.07
40.01
39.96
37.72
33.79
29.24
25.48
23.45
23.21
24.16
25.45
26.57
27.23
27.03
25.44
21.80
16.24
9.88
4.65
2.28
3.26
6.32
9.15
9.73
7.39
3.09
-1.48
-5.09
-7.64
-9.87
-12.64
-16.10
-19.35
-21.16
-20.56
-17.26
-11.75
-5.16
1.28
6.65
10.66
13.62
16.06
18.31
20.18
20.82
19.33
15.37
9.56
3.29
-1.81
-4.71
-5.21
-3.87
-1.51
1.14
3.49
4.93
4.76
2.43
-1.86
-6.95
-10.93
-12.17
-10.07
-5.53
-0.69
2.23
2.00
-1.33
-6.62
-12.57
-18.40
-23.88
-28.45
-30.44
-27.03
-15.69
3.74
27.80
50.04
63.58
64.46
53.57
36.33
19.75
9.39
7.01
10.56
16.40
21.21
23.73
24.17
23.14
20.78
17.00
12.04
7.31
4.98
6.36
11.14
17.08
20.93
20.14
14.41
6.01
-1.14
-3.36
0.78
9.59
18.50
21.71
14.93
-2.56
-26.98
-51.32
-68.02
-72.60
-65.01
-49.43
-31.80
-16.49
-5.09
3.51
11.18
18.69
25.07
28.66
28.35
24.70
20.11
17.47
18.53
23.23
29.65
34.76
35.96
32.13
24.16
14.66
6.74
2.86
3.65
7.89
13.07
16.58
16.77
13.44
7.41
0.16
-6.89
-12.28
-14.50
-12.53
-6.26
2.58
10.62
13.60
8.26
-5.76
-25.20
-44.06
-56.19
-57.63
-48.44
-32.26
-14.31
0.91
11.32
17.31
20.79
23.24
25.10
25.73
24.16
20.46
16.10
13.33
13.87
17.98
23.56
27.78
28.16
24.09
17.34
11.01
8.12
9.97
15.70
22.47
27.15
27.41
22.82
14.66
4.95
-4.55
-13.00
-20.07
-25.39
-28.19
-27.77
-24.49
-19.92
-16.79
-17.25
-21.49
-27.24
-30.60
-28.09
-18.68
-4.35
11.10
23.68
31.34
34.25
34.34
33.75
33.94
35.33
37.82
41.42
46.18
52.28
58.97
64.63
67.33
65.75
60.36
53.49
48.77
49.21
55.65
66.32
77.66
86.07
89.66
88.87
85.79
82.76
80.95
80.09
78.98
76.63
73.04
69.22
66.63
65.58
65.29
63.65
58.30
47.81
32.19
12.94
-7.41
-26.11
-41.32
-52.58
-60.59
-66.54
-70.79
-73.04
-72.63
-69.75
-66.52
-66.46
-72.61
-85.64
-102.67
-118.08
-126.20
-123.81
-111.51
-92.85
-72.11
-52.20
-34.18
-17.99
-3.57
8.01
14.98
15.91
10.27
-0.91
-15.44
-30.78
-44.77
-56.19
-64.91
-71.46
-76.56
-80.71
-83.62
-84.65
-83.32
-79.65
-74.45
-69.06
-64.72
-62.14
-61.38
-61.69
-61.86
-60.45
-56.15
-47.98
-35.73
-20.02
-2.12
16.21
33.34
48.05
59.43
66.83
69.98
69.70
68.41
69.61
76.09
87.72
100.37
107.03
101.09
79.87
46.64
9.26
-23.04
-43.76
-51.07
-47.34
-36.85
-23.34
-9.10
4.38
15.91
24.38
29.69
33.11
36.41
40.30
43.52
42.78
34.82
18.52
-4.19
-28.53
-49.21
-62.20
-65.89
-61.10
-50.09
-35.52
-20.14
-6.50
3.05
7.21
6.28
2.67
0.31
3.14
13.70
31.63
53.53
73.99
88.10
93.26
90.41
82.72
73.42
63.61
51.61
34.65
11.65
-15.14
-40.35
-57.85
-64.11
-59.42
-47.65
-33.70
-20.76
-9.48
1.15
11.92
21.89
28.69
29.87
24.98
15.73
5.73
-1.77
-5.51
-6.81
-8.73
-14.23
-24.87
-39.98
-57.14
-73.02
-84.43
-89.06
-85.85
-75.32
-59.31
-40.59
-22.01
-5.70
7.41
17.41
24.99
30.73
34.83
37.11
37.31
35.41
31.74
26.84
21.09
14.52
7.04
-1.57
-11.02
-20.46
-28.43
-33.23
-33.58
-29.11
-20.64
-9.88
1.13
10.81
18.28
23.37
26.24
27.01
25.55
21.54
14.83
5.52
-5.84
-18.51
-31.71
-44.80
-57.27
-68.58
-78.04
-84.74
-87.65
-85.93
-79.24
-68.03
-53.56
-37.61
-22.00
-8.17
3.18
12.01
18.77
24.18
28.93
33.58
38.49
43.70
48.77
53.01
55.43
55.27
52.19
46.42
38.68
29.65
19.88
9.71
-0.78
-11.64
-22.87
-34.32
-45.54
-55.81
-64.20
-69.82
-72.12
-71.16
-67.67
-62.78
-57.74
-53.51
-50.52
-48.78
-47.90
-47.37
-46.63
-45.22
-42.78
-39.11
-34.33
-28.49
-21.87
-14.67
-7.16
0.48
8.20
16.20
24.65
33.57
42.69
51.47
59.37
66.08
71.73
76.80
81.65
86.38
90.63
93.91
95.90
96.81
97.30
98.12
99.79
102.32
105.33
108.25
110.66
112.48
114.08
115.92
118.23
120.60
121.66
119.35
111.45
96.47
74.21
46.17
15.09
-15.88
-43.95
-67.18
-84.47
-95.52
-100.40
-99.91
-95.52
-89.27
-83.22
-78.42
-74.59
-70.26
-63.76
-54.41
-43.15
-32.34
-24.52
-21.49
-23.61
-30.04
-39.24
-49.34
-58.44
-64.42
-65.10
-59.42
-48.28
-34.79
-23.31
-17.23
-17.27
-21.11
-24.51
-23.78
-17.66
-7.93
1.49
6.27
3.62
-6.66
-22.20
-38.90
-52.47
-59.88
-60.28
-55.12
-47.39
-40.29
-35.75
-33.97
-33.87
-34.19
-34.66
-35.84
-38.67
-43.50
-49.39
-54.70
-57.83
-58.05
-55.80
-52.26
-48.46
-45.01
-41.47
-37.02
-31.21
-23.92
-15.80
-7.80
-1.06
3.12
3.80
0.80
-4.83
-10.82
-14.52
-14.06
-9.18
-1.33
7.23
14.73
20.59
25.49
30.49
36.00
41.40
45.28
46.38
44.31
39.78
34.38
29.63
26.42
24.79
23.55
21.01
15.87
8.14
-0.46
-7.31
-10.34
-9.57
-7.46
-7.80
-13.81
-26.25
-42.86
-59.07
-70.11
-72.75
-66.44
-53.07
-35.94
-18.13
-1.42
13.94
28.79
44.02
59.83
75.70
90.94
105.18
118.53
130.62
139.72
142.81
136.65
119.82
94.35
65.46
39.59
21.62
13.18
12.28
15.11
18.29
20.02
20.20
19.52
18.85
18.83
19.98
22.53
26.22
29.94
32.19
31.69
28.14
22.47
16.30
11.05
7.10
3.76
-0.20
-5.46
-11.85
-18.64
-24.95
-30.46
-35.49
-40.19
-44.02
-45.59
-43.79
-38.61
-31.75
-25.79
-22.61
-22.03
-21.76
-18.72
-10.97
0.88
13.82
24.02
28.89
28.04
23.48
18.13
14.33
13.25
14.54
17.11
19.67
20.96
19.97
16.52
11.26
5.04
-0.96
-5.48
-7.06
-4.21
3.95
16.70
31.17
42.82
47.09
41.39
26.59
6.60
-13.19
-28.48
-37.68
-42.00
-44.24
-46.66
-49.59
-52.14
-53.00
-51.82
-49.57
-47.58
-46.73
-46.81
-46.43
-44.05
-39.13
-32.62
-26.40
-22.49
-21.63
-22.93
-24.38
-23.97
-20.71
-15.07
-8.75
-3.72
-1.30
-1.80
-4.18
-6.94
-8.68
-8.94
-8.21
-7.44
-7.46
-8.42
-9.82
-10.96
-11.45
-11.34
-11.11
-11.00
-10.90
-10.44
-9.45
-8.34
-7.90
-9.03
-11.78
-15.15
-17.62
-18.02
-16.15
-12.41
-7.06
0.40
10.68
24.04
39.17
53.40
63.98
69.78
72.14
74.05
78.14
84.98
92.78
98.69
100.89
99.79
97.49
96.33
96.99
98.55
99.16
97.58
93.80
89.04
84.67
80.98
76.93
70.73
60.89
47.42
31.81
16.45
3.34
-6.59
-14.37
-21.73
-30.49
-41.81
-55.55
-70.78
-86.16
-100.00
-110.62
-116.38
-116.18
-109.98
-99.19
-86.71
-76.24
-70.99
-72.72
-80.96
-93.18
-105.83
-115.28
-119.12
-116.67
-108.90
-97.78
-85.42
-73.67
-63.83
-57.10
-54.57
-56.78
-62.53
-68.96
-71.33
-65.33
-49.29
-25.10
2.48
28.11
48.60
64.04
76.88
89.82
103.81
116.96
125.14
123.85
110.56
86.42
56.59
28.76
10.16
4.98
12.29
26.85
41.62
51.17
53.83
51.78
48.84
47.73
48.70
50.02
49.96
48.03
45.52
43.96
44.16
45.33
45.67
43.41
37.81
29.79
21.34
14.69
11.38
11.81
15.28
20.45
25.94
30.71
34.27
36.48
37.31
36.68
34.43
30.44
24.84
18.08
10.86
4.00
-2.03
-7.23
-12.01
-16.82
-22.19
-28.67
-36.82
-47.21
-59.82
-73.68
-86.84
-96.87
-101.72
-100.62
-94.26
-84.29
-72.44
-59.66
-46.08
-31.63
-16.80
-2.90
8.40
15.89
19.60
20.69
20.84
21.21
21.95
22.18
20.71
16.95
11.41
5.44
0.42
-2.90
-4.85
-6.46
-8.68
-11.95
-15.98
-20.19
-24.22
-27.91
-31.62
-35.64
-40.01
-44.49
-48.72
-52.32
-54.65
-54.88
-52.22
-46.59
-39.13
-32.03
-27.74
-27.51
-30.62
-34.40
-35.50
-31.58
-22.32
-9.22
5.39
19.59
32.48
43.81
53.44
60.82
65.26
66.33
64.26
59.72
53.41
45.91
37.51
28.54
19.51
10.98
3.31
-3.33
-8.89
-13.16
-15.61
-15.71
-13.44
-9.45
-5.01
-1.46
0.41
0.56
-0.42
-1.76
-3.06
-4.25
-5.58
-7.29
-9.53
-12.14
-14.88
-17.69
-20.38
-22.95
-25.49
-28.01
-30.20
-31.53
-31.57
-30.44
-28.87
-27.85
-27.99
-28.89
-29.19
-27.39
-22.60
-15.37
-7.39
-0.56
3.89
5.83
6.12
6.12
7.16
10.21
15.56
22.65
30.00
35.54
37.28
34.46
28.15
20.71
14.88
12.41
13.19
15.54
17.43
17.33
15.04
11.39
7.53
4.01
0.97
-1.47
-2.51
-0.84
4.68
13.61
23.25
29.32
27.94
17.78
1.00
-17.77
-33.66
-43.90
-48.46
-49.33
-48.66
-47.25
-44.51
-39.57
-32.52
-24.67
-18.03
-13.79
-11.77
-10.42
-7.62
-2.18
5.76
14.77
23.11
29.33
32.90
33.91
32.81
30.27
27.05
24.16
22.57
22.95
25.13
28.04
30.42
31.41
31.04
29.92
28.59
26.89
23.98
19.12
12.46
5.29
-0.53
-3.68
-4.28
-3.74
-3.97
-6.23
-10.47
-15.70
-20.50
-24.06
-26.68
-29.10
-32.23
-36.21
-40.41
-43.55
-44.46
-42.37
-37.05
-28.74
-17.99
-6.15
4.80
12.69
16.03
15.08
11.94
9.63
10.54
15.15
21.70
27.33
29.78
28.55
25.03
21.39
19.27
19.06
20.09
21.43
22.46
23.11
23.42
23.40
22.84
21.66
19.74
17.09
13.75
9.61
4.46
-1.57
-7.57
-11.99
-13.19
-10.66
-5.74
-1.41
-0.99
-6.36
-16.86
-29.38
-40.08
-46.23
-47.47
-45.63
-43.16
-41.55
-40.56
-38.66
-34.29
-26.94
-17.50
-7.60
1.38
8.77
14.56
19.20
23.02
25.95
27.78
28.32
27.70
26.33
24.84
23.83
23.71
24.55
25.96
27.28
27.61
26.29
23.30
19.31
15.67
13.69
13.95
15.94
18.18
19.00
17.33
13.30
8.01
2.90
-1.08
-4.01
-6.75
-10.22
-14.73
-19.76
-24.32
-27.76
-30.09
-32.04
-34.38
-37.27
-40.05
-41.60
-41.08
-38.22
-33.80
-28.80
-24.05
-19.86
-15.95
-11.91
-7.15
-0.99
7.04
16.88
27.47
36.81
42.54
43.05
38.24
29.74
20.24
12.25
7.19
5.07
4.98
5.80
6.86
7.97
9.20
10.58
11.79
12.52
12.44
11.41
9.38
6.65
3.52
0.27
-2.80
-5.52
-7.75
-9.57
-11.17
-12.95
-15.29
-18.42
-22.26
-26.47
-30.51
-33.73
-35.49
-35.21
-32.58
-27.60
-20.76
-12.98
-5.37
1.09
5.77
8.76
10.55
11.85
13.28
15.28
17.88
20.62
22.69
23.14
21.37
17.60
12.94
8.99
7.11
7.66
9.97
12.69
14.48
14.80
13.81
12.19
10.49
8.82
6.91
4.43
1.23
-2.53
-6.46
-10.17
-13.41
-16.10
-18.51
-20.95
-23.66
-26.72
-29.79
-32.26
-33.27
-32.07
-28.25
-22.02
-14.18
-5.98
1.37
6.95
10.65
13.07
15.27
18.41
22.93
28.63
34.61
39.88
43.86
46.41
47.62
47.42
45.79
42.80
39.14
36.07
34.75
35.50
37.69
39.74
39.96
37.88
34.34
31.25
30.26
31.41
32.82
31.71
25.94
15.71
3.51
-7.08
-13.28
-14.82
-14.43
-16.24
-23.78
-38.12
-57.28
-77.19
-93.57
-103.32
-105.51
-101.13
-92.10
-80.58
-68.38
-56.53
-45.34
-35.22
-26.42
-19.40
-14.78
-12.67
-12.78
-14.31
-16.43
-18.49
-19.83
-19.15
-14.04
-1.23
21.00
50.32
79.96
100.20
103.10
86.73
57.18
25.99
4.56
-1.53
5.18
16.69
24.31
23.65
15.85
5.85
-1.11
-2.12
3.89
16.68
36.24
62.76
95.75
132.83
169.67
201.02
222.26
231.19
228.64
217.75
202.60
186.96
173.20
161.94
152.74
144.59
136.78
129.09
121.48
113.90
106.29
98.61
91.04
84.01
77.40
70.63
62.60
52.57
40.95
29.10
18.94
11.53
6.22
0.71
-7.66
-20.76
-38.48
-58.88
-79.16
-96.78
-110.51
-120.50
-127.83
-133.64
-138.55
-142.28
-143.80
-141.82
-135.28
-123.85
-108.25
-90.12
-71.46
-54.00
-38.63
-25.30
-13.48
-2.54
8.00
18.30
28.31
37.74
45.63
50.65
51.45
47.36
39.21
29.29
20.51
15.17
13.83
15.33
17.73
19.66
21.03
22.83
26.01
30.66
35.74
39.81
41.83
41.59
39.42
35.68
30.78
25.47
21.00
18.94
20.08
23.32
25.44
22.53
11.87
-6.27
-28.64
-50.70
-68.74
-81.37
-89.01
-92.36
-91.35
-85.25
-74.11
-59.90
-46.39
-37.40
-34.47
-35.74
-36.87
-33.66
-24.45
-11.28
1.39
8.77
7.83
-2.38
-21.25
-47.43
-79.14
-113.53
-146.66
-174.24
-193.68
-204.69
-209.77
-213.01
-217.95
-225.83
-235.09
-242.40
-244.49
-239.65
-227.96
-210.69
-189.23
-164.52
-136.97
-107.13
-76.04
-45.26
-16.43
9.00
30.43
47.89
62.15
74.34
85.82
97.66
110.62
124.63
138.35
149.41
155.44
155.09
148.47
136.99
122.51
106.68
90.58
75.17
61.40
50.48
43.32
40.03
39.87
41.40
43.20
44.36
44.58
43.72
41.22
35.82
25.99
10.88
-8.65
-29.79
-48.76
-62.46
-70.13
-74.12
-78.98
-89.37
-107.70
-133.08
-161.55
-187.90
-207.87
-219.44
-223.33
-222.11
-218.89
-215.95
-213.99
-211.97
-207.78
-199.28
-185.18
-165.40
-141.01
-113.53
-84.44
-54.92
-26.14
0.45
23.19
40.51
51.54
56.53
56.77
53.99
49.89
45.51
41.28
37.05
32.51
27.36
21.52
15.19
8.78
2.93
-1.67
-4.34
-4.66
-2.50
1.92
8.07
15.32
23.06
30.55
36.79
40.42
39.88
34.10
22.94
7.70
-9.15
-24.95
-37.80
-47.30
-54.08
-58.91
-61.98
-62.77
-60.34
-54.02
-43.92
-30.83
-15.82
0.39
17.53
35.31
52.38
66.75
76.07
78.25
72.15
58.01
37.37
13.00
-12.13
-36.48
-59.19
-79.81
-98.04
-113.33
-125.57
-134.31
-139.08
-139.94
-139.38
-139.20
-139.50
-138.83
-134.76
-126.96
-116.03
-103.34
-90.49
-81.15
-75.79
-70.88
-61.04
-41.91
-15.64
11.59
31.90
38.76
26.35
-3.51
-41.96
-77.30
-99.76
-107.90
-104.83
-95.18
-60.60
2.09
79.87
152.34
197.69
220.96
228.27
224.48
215.16
203.91
190.02
173.57
156.29
141.00
130.95
125.78
125.21
129.55
138.90
150.12
160.64
169.22
174.92
176.40
169.34
150.27
118.88
78.55
34.00
-8.32
-42.45
-65.01
-75.91
-78.42
-75.72
-69.15
-58.66
-45.25
-30.85
-17.95
-8.40
-2.01
2.86
8.87
18.00
29.84
41.22
47.89
46.74
37.43
22.82
7.66
-2.93
-4.95
3.48
21.99
48.30
78.75
108.77
133.55
149.11
153.46
147.47
134.89
121.06
111.09
107.14
107.36
106.54
98.71
80.22
51.97
19.11
-11.44
-34.16
-47.30
-52.78
-54.39
-55.25
-56.06
-55.41
-51.41
-43.41
-32.77
-22.14
-13.96
-9.13
-6.69
-4.59
-0.89
5.22
12.92
20.27
25.13
26.13
23.43
18.55
13.67
10.60
10.01
11.22
12.82
13.46
12.47
10.09
7.16
4.69
3.35
3.28
4.10
5.26
6.26
6.84
7.00
6.86
6.43
5.56
3.87
0.95
-3.39
-8.96
-15.34
-21.96
-28.39
-34.34
-39.37
-42.83
-43.78
-41.23
-34.37
-22.99
-7.50
11.19
32.04
54.45
78.35
103.95
131.05
158.34
183.27
202.90
214.73
217.80
212.92
202.07
187.58
171.38
154.75
138.70
124.12
111.70
101.62
93.33
85.70
77.81
69.50
61.46
54.56
49.39
45.40
41.25
35.45
26.88
15.28
1.05
-14.81
-30.97
-45.94
-58.63
-68.87
-77.74
-87.35
-99.68
-115.51
-133.72
-151.75
-166.81
-177.24
-183.05
-185.45
-185.69
-183.91
-179.08
-169.82
-155.55
-137.37
-117.72
-99.34
-83.96
-72.00
-62.48
-54.20
-46.58
-40.09
-36.00
-35.26
-37.59
-41.21
-43.40
-41.73
-35.28
-25.14
-13.70
-3.69
2.95
5.77
5.49
3.31
0.45
-2.22
-4.19
-5.37
-6.33
-8.07
-11.76
-18.05
-26.37
-34.81
-40.84
-42.42
-39.04
-31.99
-23.43
-15.30
-8.33
-2.08
4.32
11.20
17.83
23.03
25.63
25.41
23.11
19.86
16.92
15.06
14.59
15.65
18.35
22.55
27.73
32.76
36.27
37.25
35.41
31.35
26.27
21.48
18.19
17.42
19.85
25.70
34.47
44.70
54.30
61.14
63.90
62.58
58.53
53.78
50.20
49.25
51.42
56.47
63.68
71.90
79.83
86.26
90.27
91.46
89.74
85.12
77.66
67.63
55.85
43.73
33.07
25.26
20.54
17.79
15.01
10.27
2.83
-6.48
-15.83
-23.05
-26.86
-27.38
-26.00
-24.39
-24.08
-25.84
-29.74
-35.39
-42.20
-49.33
-55.60
-59.54
-59.74
-55.70
-48.41
-40.20
-34.06
-32.33
-35.68
-42.80
-51.10
-57.98
-61.84
-62.28
-59.84
-55.25
-49.08
-41.83
-33.98
-26.12
-19.22
-13.91
-10.34
-8.04
-6.08
-3.19
1.25
7.23
13.83
19.59
23.13
23.61
20.92
15.55
8.72
1.77
-3.95
-7.64
-9.47
-10.42
-12.30
-16.75
-24.51
-34.63
-44.51
-50.92
-51.54
-45.94
-35.32
-21.67
-6.50
9.45
25.93
42.60
58.45
71.75
80.82
85.41
86.89
88.25
92.16
99.97
111.40
124.95
138.77
150.76
160.04
166.83
172.20
175.59
175.22
168.96
155.55
135.25
108.53
77.42
44.93
14.94
-11.63
-35.09
-55.61
-72.36
-84.08
-92.93
-102.09
-114.76
-131.89
-155.75
-186.64
-222.14
-257.48
-287.91
-313.44
-334.72
-351.37
-359.56
-358.86
-350.01
-334.86
-315.39
-275.32
-211.22
-133.36
-72.00
-29.11
-0.38
21.48
38.56
51.51
60.65
63.57
59.82
51.91
46.08
44.49
47.07
52.10
58.07
63.39
64.38
59.37
49.58
39.91
32.88
29.62
29.87
33.05
38.49
44.22
49.25
53.82
59.36
64.80
67.92
66.43
59.45
47.62
32.15
15.08
-0.72
-11.66
-15.10
-9.04
7.38
33.26
64.97
95.85
118.16
125.72
116.60
93.65
63.57
34.36
12.35
-0.09
-4.44
-4.19
-2.57
-1.07
0.66
3.49
7.58
11.90
14.79
14.97
12.47
8.56
4.93
3.04
3.29
5.01
6.87
7.61
6.54
3.68
-0.27
-4.36
-7.79
-10.29
-12.33
-14.98
-19.38
-26.15
-34.83
-43.96
-51.51
-55.69
-55.78
-52.21
-46.34
-39.63
-33.03
-26.65
-20.06
-12.74
-4.48
4.31
12.84
20.26
25.97
29.82
32.08
33.23
33.75
34.11
34.56
35.31
36.38
37.72
39.12
40.22
40.77
40.61
39.89
39.04
38.55
38.68
39.21
39.45
38.59
36.22
32.29
27.49
22.70
18.75
15.99
14.26
12.85
10.67
6.75
0.41
-8.09
-17.36
-24.93
-28.03
-24.85
-15.58
-2.71
10.14
19.86
25.43
28.25
31.26
37.02
46.53
58.59
70.89
81.63
90.33
97.82
104.91
111.55
116.83
119.55
119.47
118.46
119.93
127.16
141.38
160.31
179.20
192.76
197.03
189.90
172.23
147.07
118.26
89.28
62.03
37.46
16.01
-2.52
-19.95
-37.94
-57.45
-79.26
-103.78
-132.24
-165.00
-200.54
-235.47
-266.69
-290.56
-304.06
-306.04
-297.37
-281.80
-263.12
-243.90
-216.25
-178.41
-135.50
-96.23
-70.14
-54.21
-43.92
-35.48
-25.29
-12.41
0.68
10.92
16.18
15.90
11.45
4.07
-4.19
-10.98
-14.64
-15.72
-15.27
-14.06
-12.38
-9.73
-6.49
-2.98
0.31
2.55
2.26
-1.24
-7.28
-14.27
-20.18
-24.30
-26.61
-27.45
-27.04
-25.39
-21.98
-16.17
-7.85
2.28
12.61
21.52
28.08
32.20
34.29
35.05
35.25
35.45
35.97
36.60
36.78
35.88
33.39
29.37
24.45
19.78
16.59
15.73
17.34
20.81
24.91
28.13
29.25
27.57
23.25
17.12
10.55
4.88
0.91
-1.21
-2.10
-2.66
-3.61
-5.14
-6.83
-7.91
-7.77
-6.14
-3.08
1.29
7.02
14.31
23.35
33.88
45.14
56.09
65.92
74.52
82.40
90.41
99.03
108.00
116.38
122.94
126.88
128.16
127.52
125.99
124.38
123.06
121.82
120.21
117.94
114.83
110.86
106.02
100.37
94.18
87.95
82.30
77.58
73.62
69.59
64.28
56.74
46.82
35.44
24.17
14.62
7.69
3.35
1.01
0.21
1.22
5.03
12.79
25.01
40.96
59.01
77.45
95.17
112.16
128.69
144.16
156.55
162.73
159.74
146.28
123.48
94.12
61.22
27.03
-7.63
-42.45
-76.88
-109.28
-137.28
-158.81
-173.12
-181.40
-186.13
-189.90
-194.57
-200.67
-207.91
-215.43
-222.12
-227.24
-230.60
-232.89
-235.60
-240.64
-248.87
-259.40
-269.01
-273.43
-269.33
-256.09
-236.44
-214.92
-195.40
-178.85
-163.38
-145.27
-121.86
-92.90
-60.52
-28.01
1.47
25.54
43.16
53.46
55.92
50.79
39.36
24.84
10.78
0.01
-6.88
-11.48
-16.51
-23.62
-32.20
-39.81
-43.38
-41.62
-35.48
-27.91
-22.04
-19.73
-21.15
-24.99
-29.90
-35.01
-40.43
-46.08
-51.51
-55.50
-56.29
-52.30
-42.82
-28.60
-11.13
7.50
25.49
41.52
54.54
63.83
68.32
67.47
61.64
53.43
47.06
47.07
55.59
71.71
92.02
111.88
127.44
136.98
141.14
141.84
140.97
138.37
133.70
127.16
118.91
109.10
97.67
84.68
70.45
55.73
39.92
24.21
11.31
3.59
1.05
0.40
-3.97
-18.19
-46.26
-89.77
-143.48
-196.54
-237.11
-257.45
-256.19
-237.21
-207.11
-158.31
-94.20
-27.05
29.52
68.30
88.93
94.02
87.81
75.65
62.24
49.09
37.64
29.43
25.34
24.89
26.40
28.69
30.56
31.23
28.94
23.77
17.34
11.42
6.59
2.08
-3.21
-9.73
-16.87
-24.02
-29.64
-32.13
-31.03
-27.81
-25.06
-24.98
-28.26
-33.73
-39.34
-42.55
-41.36
-35.25
-25.35
-13.71
-1.94
9.37
20.75
32.96
46.28
60.26
73.87
86.58
98.94
112.07
126.15
138.79
145.00
139.19
118.30
84.58
45.36
10.18
-13.46
-23.45
-23.08
-18.45
-14.84
-14.34
-15.96
-17.39
-17.34
-16.30
-15.89
-17.53
-21.37
-26.37
-30.83
-33.39
-33.42
-31.08
-27.14
-22.42
-17.56
-12.90
-8.19
-2.88
3.67
11.74
20.95
30.26
38.08
42.94
44.09
41.90
37.72
33.24
29.64
27.09
24.93
22.19
18.40
14.00
10.12
7.86
7.63
8.74
9.71
9.11
6.17
1.11
-5.37
-12.40
-19.50
-26.44
-33.09
-39.40
-45.14
-50.31
-54.85
-58.71
-61.66
-62.96
-61.76
-57.41
-50.39
-42.37
-35.65
-32.03
-31.64
-32.74
-32.54
-28.80
-20.99
-10.58
-0.19
7.89
12.94
15.87
18.61
22.89
29.20
36.72
43.80
48.95
51.61
52.38
52.95
55.00
59.78
67.15
75.79
84.08
90.85
95.78
98.97
100.25
99.01
94.83
88.59
82.65
79.77
81.02
84.27
84.63
76.99
59.27
34.04
7.58
-13.31
-24.86
-27.69
-25.65
-23.13
-22.33
-22.77
-22.58
-20.46
-17.10
-14.60
-15.34
-20.21
-28.03
-36.26
-42.24
-44.47
-43.33
-40.54
-38.32
-38.26
-40.70
-44.79
-48.97
-51.86
-52.81
-52.06
-50.49
-49.12
-48.51
-48.62
-48.72
-47.88
-45.35
-40.92
-35.04
-28.53
-22.07
-15.95
-9.88
-3.18
4.69
13.79
23.40
32.14
38.23
39.94
36.49
28.48
17.89
7.55
0.34
-1.73
2.28
11.68
24.46
37.81
48.49
53.92
53.11
47.08
38.81
31.99
29.42
31.64
36.88
41.83
43.52
40.72
34.52
27.19
21.06
17.39
16.43
17.70
20.48
24.34
29.09
34.48
40.19
45.74
50.60
54.44
57.08
58.61
59.69
61.14
63.61
67.57
72.74
78.21
82.69
84.85
83.96
80.36
75.30
70.36
67.08
65.93
65.81
64.89
61.08
53.07
40.67
24.46
5.74
-13.71
-31.40
-44.37
-49.81
-46.50
-35.71
-21.09
-7.19
2.80
8.39
11.65
15.38
21.11
28.15
34.22
37.24
37.00
35.28
35.04
38.87
47.76
61.08
76.95
93.52
110.09
126.96
145.54
167.04
191.61
217.84
242.87
263.26
276.04
279.58
273.82
260.05
240.22
216.33
190.02
162.38
134.06
105.44
76.82
48.47
20.60
-6.96
-34.96
-64.60
-96.76
-131.09
-165.52
-196.45
-220.12
-234.10
-238.30
-235.03
-227.90
-220.29
-214.33
-210.47
-208.02
-205.78
-202.51
-197.28
-189.33
-178.23
-164.10
-147.95
-131.85
-118.63
-111.07
-110.97
-118.17
-130.37
-143.54
-153.43
-157.03
-153.69
-145.23
-135.00
-126.44
-121.28
-118.96
-116.94
-112.24
-103.29
-90.94
-78.26
-69.33
-67.33
-73.23
-85.51
-101.11
-116.87
-130.46
-140.61
-146.55
-147.73
-143.75
-135.14
-123.75
-112.73
-105.45
-104.32
-109.68
-119.87
-131.90
-142.56
-149.54
-151.97
-150.55
-146.91
-142.90
-139.65
-136.94
-133.25
-126.40
-114.48
-96.88
-74.51
-49.56
-24.51
-1.47
18.31
34.32
46.38
54.20
57.54
56.39
51.40
44.12
36.68
31.41
30.37
34.77
44.88
60.18
79.66
101.65
123.63
141.80
151.71
149.73
134.79
109.54
79.82
52.47
32.53
21.41
16.75
14.13
9.50
0.72
-11.85
-26.31
-40.37
-52.27
-60.78
-65.13
-64.73
-59.36
-49.36
-35.78
-20.27
-4.87
8.56
18.65
24.97
27.74
27.66
25.52
22.01
17.72
13.61
10.77
10.26
12.56
17.23
23.20
29.47
35.54
41.58
47.97
54.75
61.47
67.78
74.46
83.69
97.98
117.78
139.89
157.29
161.81
148.09
116.51
73.71
29.86
-5.41
-26.61
-33.61
-30.38
-22.09
-12.66
-3.74
4.89
14.33
25.12
37.12
49.88
62.76
75.58
88.82
103.18
119.15
136.70
155.46
175.10
195.64
217.17
239.23
260.47
278.47
290.59
294.72
290.30
278.55
262.14
244.40
228.59
217.23
211.53
210.96
212.90
213.21
207.27
191.38
164.10
126.84
83.14
37.42
-6.09
-44.71
-77.67
-105.93
-131.85
-158.67
-190.00
-228.78
-275.95
-328.59
-379.45
-418.30
-435.33
-425.11
-389.45
-336.87
-279.37
-227.55
-187.02
-157.93
-136.84
-119.94
-104.90
-91.09
-78.52
-66.88
-55.59
-44.43
-34.07
-25.62
-19.68
-15.61
-11.42
-4.77
5.72
19.56
34.73
48.34
57.86
62.02
61.03
56.24
49.53
42.63
36.36
30.73
24.61
16.81
6.46
-6.10
-19.59
-32.01
-41.27
-46.25
-46.80
-44.08
-39.96
-36.22
-33.91
-33.13
-33.10
-32.94
-32.22
-31.14
-30.26
-29.91
-30.15
-30.61
-30.73
-30.03
-28.00
-24.21
-18.00
-9.23
1.64
12.94
22.13
26.63
25.17
18.54
9.49
1.86
-1.43
0.00
3.80
5.53
1.12
-10.90
-28.39
-46.12
-58.04
-60.23
-52.63
-39.08
-25.59
-17.58
-17.71
-25.07
-36.34
-47.28
-54.79
-57.86
-56.95
-53.44
-48.13
-40.98
-31.14
-17.87
-1.02
18.24
38.12
56.66
72.30
83.99
91.13
93.14
89.63
80.71
67.33
51.41
35.36
21.53
11.57
6.16
5.20
8.23
14.55
23.16
32.51
40.47
44.89
44.64
40.04
32.75
25.03
18.26
12.44
6.27
-1.98
-13.29
-27.06
-41.35
-53.68
-62.01
-65.34
-63.80
-58.21
-49.76
-40.07
-30.95
-24.08
-20.44
-20.19
-22.19
-24.54
-24.89
-21.27
-12.94
-0.76
13.02
25.37
33.84
37.32
36.26
32.01
26.09
19.63
12.99
6.32
-0.26
-6.29
-11.16
-14.17
-14.97
-13.53
-10.24
-5.74
-1.30
1.36
0.66
-4.13
-12.19
-20.99
-27.05
-27.22
-19.41
-3.33
19.53
46.03
71.52
90.67
98.93
94.16
77.68
54.24
30.19
11.14
0.05
-3.48
-2.12
1.00
3.87
6.11
8.19
10.67
13.54
16.43
19.02
21.42
24.01
26.97
30.12
32.67
33.50
31.58
26.69
19.59
12.11
6.42
4.18
5.47
8.56
10.68
9.09
2.75
-7.27
-17.99
-25.83
-28.05
-23.59
-13.60
-0.33
13.18
24.56
32.41
36.47
37.49
36.63
35.23
34.37
34.81
36.27
37.62
36.97
32.49
23.39
10.65
-2.58
-12.33
-15.28
-10.95
-1.94
6.93
11.07
8.34
-0.57
-12.82
-25.34
-36.15
-44.77
-51.37
-55.82
-57.53
-55.56
-50.01
-42.28
-35.02
-30.90
-31.32
-35.68
-41.65
-46.61
-48.40
-46.46
-41.57
-35.18
-28.62
-22.58
-17.09
-11.79
-6.76
-2.03
2.05
5.56
8.77
12.08
15.57
18.88
21.37
22.57
22.82
22.82
23.18
23.94
24.44
23.99
22.37
20.20
18.50
18.15
19.05
20.02
19.54
16.38
10.33
2.40
-5.79
-12.98
-18.43
-22.33
-25.15
-27.08
-27.77
-26.42
-22.33
-15.62
-7.37
0.54
6.33
9.32
10.36
11.29
13.99
19.14
25.69
31.35
33.59
30.97
23.80
13.94
3.92
-4.17
-9.34
-11.77
-12.50
-12.55
-12.80
-13.43
-14.26
-15.16
-16.16
-17.41
-19.15
-21.36
-23.63
-25.42
-25.97
-24.86
-21.91
-17.65
-13.09
-9.82
-9.43
-12.72
-19.27
-27.12
-33.19
-34.17
-27.58
-12.62
9.73
37.08
66.03
92.33
111.39
119.10
113.05
93.92
65.77
35.12
8.66
-8.92
-16.59
-16.33
-11.88
-6.56
-2.14
1.16
3.89
6.29
8.01
8.46
7.58
6.05
4.81
4.69
5.81
7.52
8.70
8.27
5.56
0.36
-7.03
-15.87
-25.06
-33.36
-39.63
-43.29
-44.37
-43.40
-40.98
-37.21
-31.72
-23.97
-14.06
-2.90
7.86
16.58
22.11
24.19
23.21
20.03
15.55
10.75
6.64
4.13
3.81
5.55
8.60
11.78
14.03
14.84
14.41
13.45
12.71
12.65
13.19
13.91
14.26
13.91
12.77
11.04
9.13
7.42
6.22
5.66
5.65
5.94
6.23
6.23
5.76
4.81
3.59
2.47
2.01
2.59
4.33
6.96
9.90
12.53
14.53
16.01
17.41
19.15
21.36
23.76
25.85
27.43
28.76
30.48
33.21
37.10
41.73
46.31
50.22
53.25
55.86
58.76
62.50
67.14
72.08
76.29
78.57
77.91
73.83
66.44
56.49
45.05
33.22
21.70
10.80
0.40
-9.56
-18.83
-26.74
-32.43
-35.28
-35.36
-33.47
-30.72
-28.06
-25.95
-24.36
-23.19
-22.52
-22.58
-23.55
-25.31
-27.21
-28.57
-28.95
-28.39
-27.40
-26.46
-25.69
-24.81
-23.49
-21.70
-19.87
-18.75
-18.88
-20.40
-22.91
-25.76
-28.31
-30.27
-31.68
-32.86
-34.20
-35.98
-38.45
-41.73
-45.86
-50.75
-56.11
-61.28
-65.52
-68.12
-68.63
-67.18
-64.49
-61.58
-59.47
-58.56
-58.45
-58.12
-56.41
-52.58
-46.73
-39.70
-32.68
-26.66
-22.03
-18.46
-15.23
-11.64
-7.35
-2.57
2.20
6.38
9.54
11.48
12.03
11.19
9.07
6.01
2.70
-0.01
-1.46
-1.68
-1.55
-2.47
-5.78
-12.00
-20.45
-29.60
-37.51
-42.76
-44.77
-43.42
-38.77
-30.65
-18.67
-2.51
17.57
40.77
65.88
91.35
115.18
134.54
145.85
145.83
132.90
108.63
77.88
47.30
22.88
7.80
1.69
1.67
4.43
7.80
11.15
14.66
18.32
21.27
22.37
20.97
17.61
13.82
11.34
11.40
14.20
18.87
23.83
27.53
28.89
27.70
24.74
21.47
19.60
20.56
25.02
32.82
43.07
54.57
66.22
77.53
88.53
99.76
111.61
124.15
136.82
148.74
159.08
167.42
173.96
179.39
184.50
189.97
196.09
202.78
209.70
216.18
221.28
223.88
222.85
217.43
207.35
193.00
175.29
155.31
134.21
113.17
93.21
75.04
58.89
44.11
29.12
11.94
-9.21
-35.05
-64.79
-96.23
-126.56
-153.21
-174.58
-190.18
-200.27
-205.27
-205.37
-200.66
-191.56
-179.37
-166.14
-154.11
-144.86
-138.66
-134.38
-130.20
-124.32
-115.79
-104.78
-92.36
-80.15
-69.59
-61.80
-57.04
-54.81
-53.97
-53.21
-51.50
-48.60
-44.96
-41.29
-38.03
-35.20
-32.69
-30.63
-29.80
-31.29
-36.09
-44.39
-55.38
-67.63
-79.65
-90.58
-100.43
-109.84
-119.58
-129.80
-140.00
-148.63
-153.79
-153.56
-146.84
-133.83
-116.06
-96.20
-77.34
-61.73
-49.94
-40.56
-31.34
-20.65
-8.97
1.16
6.47
4.57
-4.59
-18.59
-33.50
-45.42
-51.58
-50.67
-42.59
-28.63
-11.83
2.71
9.02
3.04
-14.83
-38.73
-59.25
-67.24
-57.93
-32.81
0.91
33.17
54.67
59.62
46.89
20.13
-14.09
-47.48
-72.17
-82.56
-77.21
-59.10
-34.20
-9.38
10.17
22.13
26.89
26.58
23.83
20.75
18.68
18.30
20.48
26.32
36.73
51.57
68.86
84.90
95.72
98.89
95.31
88.64
83.64
83.39
88.49
96.66
104.62
109.99
111.31
107.80
98.81
83.81
63.24
39.47
16.34
-2.83
-16.88
-27.26
-37.05
-48.43
-60.80
-70.87
-74.07
-67.91
-53.78
-36.83
-23.91
-20.03
-26.04
-37.59
-47.71
-50.28
-43.62
-31.92
-22.51
-22.30
-32.91
-49.91
-64.80
-69.71
-61.30
-42.34
-19.57
0.18
12.44
16.65
15.16
11.20
7.10
3.94
1.62
-0.35
-2.22
-4.41
-7.06
-10.26
-13.79
-16.87
-18.44
-17.64
-14.78
-11.95
-13.07
-21.72
-39.04
-61.89
-82.88
-93.39
-87.33
-64.40
-30.23
6.11
36.88
58.15
70.56
77.15
80.16
80.15
76.72
70.24
62.87
58.19
58.40
62.89
67.84
68.54
61.92
48.66
32.86
19.64
12.71
12.13
15.12
17.28
15.17
7.71
-3.79
-16.91
-29.34
-40.30
-50.81
-62.49
-76.47
-91.77
-105.21
-112.74
-111.19
-100.26
-83.17
-65.19
-50.81
-41.80
-36.59
-31.68
-24.56
-15.00
-5.21
1.98
5.14
5.41
5.89
9.69
17.92
28.76
38.82
44.72
44.97
40.64
34.54
29.66
28.00
29.29
31.77
33.22
32.07
28.71
24.94
22.79
23.18
24.92
25.05
20.85
11.66
-0.16
-10.51
-16.00
-16.16
-13.63
-12.00
-13.10
-15.37
-14.57
-6.37
11.36
37.04
66.80
96.77
124.56
149.41
170.87
187.26
195.92
194.56
182.82
163.37
141.20
121.84
109.50
105.31
107.03
110.65
112.53
111.26
107.83
103.45
97.81
87.88
69.83
41.78
6.20
-29.98
-58.18
-72.51
-72.34
-62.41
-49.92
-40.79
-37.89
-40.65
-46.71
-52.73
-55.40
-51.82
-40.27
-21.94
-0.95
15.82
22.08
14.88
-3.40
-26.38
-46.85
-59.92
-64.98
-64.19
-60.32
-54.69
-46.50
-34.80
-20.11
-5.17
5.68
8.89
3.90
-6.74
-18.09
-25.05
-24.26
-14.63
2.60
24.46
47.01
66.43
79.28
83.72
79.98
70.07
57.30
44.28
32.12
19.93
6.22
-9.84
-27.40
-44.11
-57.81
-67.21
-72.75
-76.13
-79.15
-82.85
-87.74
-93.99
-102.33
-113.74
-127.83
-142.06
-151.62
-151.10
-137.33
-111.43
-78.98
-48.28
-26.88
-18.48
-21.53
-30.26
-37.67
-38.80
-32.39
-20.81
-8.42
1.06
5.59
5.42
2.50
-0.69
-2.15
-1.23
1.63
4.98
7.17
6.92
3.62
-2.31
-10.11
-19.16
-29.02
-39.83
-51.83
-64.57
-76.84
-86.77
-92.70
-94.46
-93.90
-95.00
-101.73
-115.69
-134.64
-152.69
-162.30
-158.11
-139.58
-110.92
-79.10
-50.01
-26.22
-6.68
11.09
28.24
43.31
52.92
54.05
46.09
31.61
15.55
3.10
-2.14
0.98
11.07
25.18
40.31
54.18
65.78
75.01
81.88
86.04
86.83
84.08
79.00
73.80
70.56
70.09
70.89
70.05
64.78
54.12
39.62
24.35
11.24
1.70
-4.40
-8.04
-9.61
-8.67
-4.55
3.01
13.24
24.73
36.01
45.98
54.17
60.36
64.94
68.86
73.58
80.14
88.37
96.36
101.56
102.13
98.10
91.17
83.50
76.54
70.07
62.65
52.78
40.44
27.37
16.21
8.71
4.97
4.13
4.19
3.31
-0.17
-6.60
-14.77
-22.03
-25.82
-24.63
-18.20
-7.60
5.22
17.96
29.52
39.71
48.59
54.89
53.80
41.74
19.55
-7.52
-34.12
-56.74
-76.10
-92.00
-102.93
-106.73
-101.41
-86.97
-63.15
-34.97
-9.21
8.33
14.87
10.70
-1.58
-18.10
-35.44
-51.37
-65.71
-78.72
-90.53
-100.82
-109.23
-115.56
-119.49
-121.07
-120.61
-118.88
-116.10
-111.59
-104.14
-93.18
-79.34
-64.25
-49.63
-36.30
-23.85
-10.63
4.87
22.99
42.25
59.98
73.79
82.41
86.06
85.66
82.44
77.42
71.29
64.93
59.09
54.53
51.73
50.67
50.89
51.92
53.36
54.80
55.70
55.13
51.85
44.56
32.73
17.19
-0.02
-16.23
-29.10
-37.36
-41.02
-40.75
-37.26
-30.96
-22.10
-11.33
0.20
11.14
20.61
28.41
34.89
40.26
44.22
46.24
46.31
45.37
45.23
47.44
52.19
58.38
64.07
67.78
69.39
69.89
70.87
73.17
76.34
78.99
79.48
77.12
72.10
65.15
56.68
46.48
33.90
18.52
0.90
-16.99
-31.86
-40.75
-42.44
-38.14
-30.33
-21.40
-12.40
-2.99
7.79
21.17
36.89
52.92
66.15
74.01
75.45
71.04
62.31
51.30
41.31
35.04
33.76
36.84
42.73
49.41
55.12
58.39
52.09
32.96
3.08
-30.48
-60.38
-81.96
-94.51
-100.34
-102.09
-102.07
-100.18
-96.17
-88.77
-78.07
-65.30
-53.09
-44.99
-44.82
-54.07
-69.40
-85.74
-98.13
-103.57
-101.48
-93.43
-78.50
-59.25
-44.21
-34.59
-28.60
-25.44
-24.88
-26.83
-31.07
-36.88
-43.66
-50.08
-53.54
-52.75
-47.95
-40.50
-32.36
-25.33
-20.48
-18.23
-17.99
-17.96
-17.33
-16.24
-15.20
-14.68
-14.74
-14.96
-15.15
-15.24
-15.24
-16.05
-18.62
-23.14
-28.52
-32.81
-33.98
-30.99
-24.14
-14.54
-3.70
7.13
17.48
27.29
36.40
44.30
50.28
53.87
54.99
53.61
49.86
43.85
36.28
28.61
22.70
20.07
21.16
25.26
31.07
37.65
44.60
51.78
58.58
63.43
64.64
61.16
53.83
44.84
37.09
32.51
31.40
32.44
33.74
33.65
31.65
28.48
25.38
23.69
23.92
25.43
26.72
26.30
24.01
21.09
19.67
21.39
26.18
32.19
36.78
38.11
36.01
31.94
27.69
24.19
20.96
16.75
10.55
2.41
-6.29
-13.91
-19.01
-21.35
-21.59
-20.72
-19.28
-17.13
-13.52
-7.58
0.42
9.37
17.39
22.91
25.67
26.73
27.81
29.73
31.76
31.63
27.05
17.30
3.90
-9.83
-20.31
-25.20
-23.78
-16.56
-4.66
10.81
28.44
46.07
60.38
67.59
65.40
54.59
39.71
27.77
25.33
35.34
55.77
80.47
101.62
113.13
112.49
101.02
82.51
61.00
39.43
19.24
1.33
-13.54
-24.42
-30.93
-34.09
-36.48
-41.64
-52.91
-71.83
-97.07
-124.64
-148.96
-164.95
-169.78
-163.80
-150.21
-133.66
-118.60
-108.03
-102.93
-102.32
-103.99
-105.34
-104.11
-99.03
-89.88
-77.56
-63.74
-50.32
-38.94
-30.48
-24.89
-21.13
-17.43
-11.83
-2.90
9.67
24.61
39.60
51.93
59.73
62.32
59.96
53.46
43.47
30.73
16.36
2.55
-8.10
-13.38
-12.80
-8.22
-3.07
-0.85
-3.58
-11.31
-22.71
-36.01
-49.42
-61.13
-68.90
-70.38
-64.06
-50.34
-31.89
-12.91
2.67
12.66
17.54
19.49
21.22
24.34
28.98
34.13
38.46
41.25
42.70
43.80
45.69
49.14
53.70
58.12
60.94
61.37
59.96
58.37
58.66
62.21
69.20
78.59
88.91
98.88
107.89
116.03
123.71
131.24
138.79
146.40
154.15
162.13
170.78
180.66
192.64
207.39
224.86
243.62
261.19
274.59
281.74
282.45
278.25
271.33
262.91
252.78
240.00
224.50
207.99
193.21
182.43
175.13
167.85
155.58
134.93
106.26
73.84
43.89
21.55
8.76
3.76
2.71
1.75
-1.32
-6.69
-13.42
-20.52
-28.11
-37.43
-50.70
-69.45
-93.95
-122.74
-152.83
-181.10
-205.38
-225.35
-241.85
-256.02
-268.05
-276.83
-281.07
-280.00
-274.48
-266.22
-256.78
-246.65
-235.28
-222.67
-210.59
-203.01
-204.35
-217.32
-241.01
-271.04
-301.57
-327.87
-348.21
-363.53
-375.68
-385.20
-390.47
-387.74
-373.44
-345.85
-306.21
-258.45
-207.73
-159.15
-115.98
-79.63
-50.22
-27.48
-11.81
-3.89
-4.17
-11.71
-24.01
-37.47
-48.16
-53.20
-51.00
-41.64
-26.63
-8.51
9.22
22.91
30.23
31.63
30.63
32.82
43.38
63.95
90.91
116.33
131.13
129.21
110.34
79.95
46.42
17.22
-3.94
-17.28
-25.40
-30.77
-34.25
-35.09
-32.23
-25.23
-15.26
-4.39
5.24
12.06
15.50
15.58
12.57
7.18
0.45
-6.70
-13.83
-20.94
-28.64
-37.43
-47.04
-56.00
-61.95
-61.97
-53.37
-34.76
-7.01
26.19
58.80
83.76
95.21
90.92
73.57
49.80
27.76
14.03
11.15
17.59
29.28
41.75
52.07
59.15
63.12
64.49
63.80
61.41
57.77
53.32
48.20
42.59
36.48
30.00
23.71
18.48
14.86
12.90
11.96
11.29
10.33
8.95
7.27
5.11
1.89
-3.31
-10.82
-19.43
-25.88
-25.61
-15.02
6.28
34.19
60.97
78.61
82.46
73.46
57.48
42.22
33.30
32.02
35.72
40.18
42.54
42.50
41.66
41.72
42.94
44.16
43.75
40.88
36.18
31.32
28.13
27.73
29.87
33.10
35.05
33.61
27.72
17.73
5.41
-7.06
-17.61
-25.01
-28.98
-29.77
-27.68
-23.07
-16.65
-10.12
-5.63
-5.07
-8.71
-14.50
-19.01
-18.66
-11.91
0.41
15.41
29.95
41.44
48.80
51.88
51.14
47.01
40.21
32.47
26.21
24.12
27.41
34.96
43.86
50.79
53.96
54.02
53.66
55.77
61.90
71.05
80.59
87.37
88.84
84.11
73.45
58.30
40.86
23.65
9.26
-0.57
-5.51
-6.73
-6.14
-5.52
-5.24
-4.71
-2.77
1.39
7.77
15.41
22.36
26.59
26.68
22.59
16.22
10.89
10.11
15.49
25.55
36.05
42.25
41.36
34.37
25.28
18.82
17.82
21.63
26.88
29.95
28.85
23.61
15.58
5.90
-4.87
-16.14
-26.45
-33.46
-35.08
-31.08
-23.96
-17.39
-14.00
-13.30
-11.55
-4.52
9.46
27.38
42.66
48.56
42.29
26.58
8.06
-6.45
-13.36
-13.18
-9.36
-5.17
-1.94
1.73
8.10
18.28
30.83
42.14
48.63
48.82
43.94
37.16
31.98
31.09
34.55
40.09
44.77
46.78
46.39
44.94
44.08
44.41
46.85
51.41
57.27
63.08
68.03
71.65
73.54
73.35
71.26
70.76
74.78
84.30
97.74
113.10
129.27
146.11
163.69
181.45
200.79
221.28
240.23
254.26
261.80
263.94
262.57
258.35
230.79
170.58
85.50
-3.47
-77.21
-127.59
-156.04
-168.37
-170.85
-169.02
-162.44
-150.15
-133.63
-117.35
-106.42
-104.23
-111.79
-128.18
-147.05
-160.17
-162.10
-153.17
-139.36
-128.71
-127.22
-136.32
-152.99
-171.35
-184.25
-187.52
-181.51
-170.13
-157.18
-144.25
-130.55
-114.26
-94.96
-74.06
-55.11
-42.02
-37.50
-40.83
-48.70
-56.70
-61.74
-63.37
-63.31
-64.34
-68.24
-74.82
-81.74
-86.47
-87.99
-87.74
-89.13
-95.99
-110.00
-129.00
-147.35
-158.08
-156.16
-140.64
-115.26
-86.87
-62.33
-46.15
-39.65
-41.18
-47.66
-56.19
-64.64
-71.58
-75.95
-76.22
-70.94
-58.91
-40.12
-16.54
8.40
30.31
45.15
50.37
45.96
34.14
18.89
4.96
-3.41
-3.58
5.25
21.67
42.72
64.84
84.38
98.51
105.99
106.90
102.59
95.12
86.58
78.53
72.43
69.16
68.74
70.19
71.21
69.18
62.28
50.70
36.88
23.97
13.91
6.13
-1.82
-12.63
-26.67
-41.03
-51.02
-52.75
-45.57
-32.61
-18.47
-6.77
1.21
6.30
9.71
11.34
10.00
4.54
-5.02
-17.17
-29.84
-41.62
-51.74
-59.51
-63.94
-63.36
-56.90
-45.49
-32.15
-20.71
-13.08
-8.22
-2.54
7.60
23.70
44.12
65.09
83.63
98.64
110.85
120.93
127.19
125.52
112.04
85.67
50.25
13.94
-14.34
-28.64
-28.40
-18.15
-4.60
6.57
13.15
16.45
19.59
24.83
32.30
40.12
45.66
47.49
46.11
43.61
42.49
43.95
47.15
49.55
48.04
40.97
29.24
15.94
4.94
-0.84
-0.52
4.49
11.62
18.05
21.97
22.95
21.28
17.65
12.36
5.42
-3.01
-12.22
-20.87
-27.36
-30.71
-31.09
-29.75
-28.29
-27.97
-29.01
-30.38
-30.76
-29.20
-25.76
-21.30
-16.72
-12.42
-8.09
-3.19
2.38
8.18
13.06
16.07
17.10
16.95
16.76
17.45
19.13
21.21
22.99
23.98
24.25
24.13
23.84
23.31
22.26
20.43
17.88
15.00
12.17
9.57
7.17
4.76
2.23
-0.30
-2.60
-4.70
-7.09
-10.53
-15.76
-22.72
-30.50
-37.36
-41.33
-41.26
-37.12
-29.99
-21.35
-12.34
-3.31
6.02
15.97
26.28
36.00
43.72
48.36
49.74
48.51
45.85
42.93
40.51
38.91
38.08
37.89
38.14
38.58
38.76
38.12
36.15
32.52
27.43
21.51
15.62
10.47
6.32
2.85
-0.55
-4.60
-9.66
-15.59
-21.96
-28.26
-34.20
-39.88
-45.45
-50.72
-55.12
-57.59
-57.02
-52.66
-44.32
-32.46
-18.17
-3.11
10.99
22.33
29.86
33.68
34.97
35.55
36.88
39.13
41.03
40.77
37.41
31.65
26.09
23.44
25.23
30.63
36.94
41.07
40.95
36.37
28.41
18.47
7.61
-2.92
-11.17
-14.57
-11.02
-0.84
12.24
21.51
20.07
4.18
-24.01
-56.96
-84.81
-99.98
-100.22
-89.04
-72.94
-57.46
-44.73
-33.59
-21.54
-7.20
8.53
23.12
34.00
40.37
43.67
46.29
50.17
55.41
60.57
63.56
63.00
58.70
51.94
44.53
38.00
33.04
28.97
24.24
17.25
7.43
-4.25
-15.42
-23.18
-25.74
-22.69
-15.68
-7.89
-2.79
-2.82
-8.37
-17.73
-27.52
-34.52
-36.77
-34.93
-31.59
-29.89
-31.93
-37.41
-44.07
-48.57
-48.77
-44.27
-36.84
-28.66
-21.12
-14.59
-8.17
-1.25
5.95
12.02
15.46
15.85
14.31
13.31
14.91
19.85
26.60
32.20
33.81
30.00
21.76
11.96
3.85
-0.53
-0.94
0.90
2.39
1.22
-3.09
-9.20
-14.76
-17.69
-17.51
-15.58
-14.53
-16.14
-20.42
-25.63
-29.15
-29.12
-25.07
-18.01
-9.55
-1.19
6.17
11.77
15.06
15.69
14.05
11.33
9.27
9.01
10.58
13.53
16.94
20.02
22.67
24.76
26.28
27.01
26.87
26.06
24.90
23.83
23.40
24.09
25.80
27.98
29.40
28.61
24.52
16.90
6.52
-4.70
-14.32
-20.67
-22.83
-21.29
-17.56
-13.73
-11.79
-13.32
-18.52
-26.39
-34.84
-41.30
-44.11
-43.25
-40.40
-38.23
-38.97
-42.78
-47.65
-50.02
-46.74
-36.67
-21.69
-5.63
7.48
15.45
18.62
19.23
19.98
22.48
26.51
30.58
33.35
34.09
33.27
32.18
31.94
33.01
35.13
37.41
38.96
39.24
38.35
36.80
35.01
33.01
30.23
25.89
19.36
10.71
0.73
-9.18
-17.53
-23.29
-26.19
-26.79
-26.26
-26.10
-27.59
-31.55
-37.89
-45.50
-52.61
-57.30
-58.21
-55.33
-49.98
-44.06
-39.08
-35.30
-31.49
-26.00
-17.54
-6.09
6.78
18.77
27.63
32.08
31.88
27.91
21.84
15.93
13.00
15.70
25.08
39.33
53.83
62.20
59.10
42.92
16.83
-11.79
-34.41
-44.38
-39.23
-21.26
3.56
27.62
43.91
47.79
38.10
17.32
-9.27
-35.50
-56.05
-68.17
-71.76
-68.54
-61.18
-52.06
-43.57
-37.71
-35.96
-38.87
-45.43
-52.97
-58.12
-58.15
-52.02
-40.91
-27.50
-14.65
-4.43
2.54
6.98
10.15
12.84
15.02
15.49
12.81
6.00
-4.72
-17.34
-28.68
-35.30
-34.82
-26.47
-11.53
7.33
26.70
43.06
53.49
56.21
51.13
39.64
24.44
8.45
-6.07
-18.21
-28.17
-36.69
-44.28
-50.87
-55.90
-58.80
-59.56
-58.61
-56.34
-52.77
-47.14
-38.54
-26.15
-9.91
9.32
30.25
51.73
73.17
94.00
112.87
126.95
132.27
125.38
105.45
75.42
41.58
11.28
-10.08
-20.75
-22.84
-20.35
-17.06
-14.95
-14.12
-13.84
-13.56
-13.40
-13.92
-15.41
-17.70
-20.23
-22.32
-23.68
-24.60
-25.77
-28.03
-31.83
-37.01
-42.69
-47.63
-50.68
-51.26
-49.67
-46.78
-43.63
-40.84
-38.27
-35.26
-31.04
-25.26
-18.25
-10.90
-4.30
0.73
3.86
5.30
5.63
5.46
5.37
5.65
6.38
7.48
8.95
10.94
13.77
17.75
22.97
28.97
34.83
39.35
41.57
41.19
38.67
34.95
31.10
27.83
25.44
23.80
22.61
21.68
20.89
20.32
20.08
20.37
21.20
22.47
23.78
24.51
24.02
22.04
18.86
15.33
12.67
11.95
13.69
17.62
22.73
27.63
30.75
31.00
27.91
21.88
14.09
6.06
-0.60
-5.06
-7.27
-7.90
-7.80
-7.56
-7.24
-6.34
-4.08
0.30
7.09
15.95
25.72
34.66
40.87
42.91
40.28
33.61
24.50
14.73
5.82
-1.40
-6.64
-9.89
-11.06
-9.77
-5.95
0.18
7.67
15.10
21.04
24.40
24.85
22.64
18.32
12.22
4.48
-4.84
-15.08
-25.02
-32.89
-37.17
-37.39
-34.29
-29.75
-25.64
-23.25
-22.40
-21.83
-19.98
-16.19
-11.36
-7.51
-6.93
-10.47
-17.31
-24.91
-30.57
-32.51
-30.52
-25.34
-18.11
-9.81
-1.17
6.63
12.33
15.17
15.59
15.88
18.79
26.04
36.74
47.42
53.54
51.50
40.45
22.28
0.76
-20.44
-38.48
-51.99
-60.44
-63.69
-62.16
-56.38
-47.58
-36.87
-25.42
-14.01
-2.76
8.79
21.35
35.66
51.64
67.90
81.79
89.66
88.59
78.05
60.38
40.60
24.19
14.53
11.41
11.26
9.29
2.23
-10.16
-25.29
-39.38
-49.69
-55.16
-56.52
-55.16
-51.98
-47.37
-41.49
-34.92
-28.68
-23.77
-20.90
-19.86
-19.82
-19.62
-18.17
-14.78
-9.24
-1.80
6.39
13.58
17.94
18.10
13.93
6.62
-1.76
-9.13
-14.19
-16.74
-17.42
-16.99
-15.78
-13.58
-10.00
-5.03
0.59
5.65
9.02
10.38
10.28
9.96
10.56
12.56
15.58
18.49
19.94
18.84
14.81
8.37
0.59
-7.24
-14.09
-19.43
-23.28
-25.85
-27.19
-27.01
-24.75
-19.85
-12.09
-1.74
10.43
23.21
35.10
44.46
49.82
50.13
45.19
35.84
23.88
11.71
1.59
-4.97
-7.51
-6.74
-4.16
-1.61
-0.73
-2.56
-7.21
-13.90
-21.17
-27.36
-31.05
-31.42
-28.37
-22.48
-14.75
-6.21
2.31
10.42
17.97
24.79
30.54
34.71
36.87
36.94
35.28
32.53
29.39
26.43
23.96
22.10
20.96
20.48
20.30
19.69
17.58
12.85
5.01
-5.57
-17.62
-29.49
-39.80
-47.76
-53.33
-56.85
-58.80
-59.62
-59.74
-59.58
-59.69
-60.39
-61.83
-63.63
-65.15
-65.61
-64.43
-61.33
-56.34
-49.76
-42.14
-34.16
-26.73
-20.66
-16.51
-14.27
-13.62
-14.01
-14.95
-16.29
-17.99
-19.96
-22.04
-23.92
-25.48
-26.88
-28.48
-30.42
-32.38
-33.58
-33.06
-30.12
-24.77
-17.58
-9.51
-1.44
6.13
12.95
18.89
23.49
26.21
26.56
24.39
20.29
15.32
10.84
8.18
8.26
11.19
16.43
22.85
29.25
34.58
38.32
40.22
40.48
39.65
38.42
37.61
38.23
41.19
47.28
56.90
69.87
85.15
101.01
115.61
127.41
135.82
140.91
142.87
141.14
134.07
119.79
97.51
68.54
36.47
5.70
-20.39
-41.04
-57.80
-72.97
-87.74
-101.28
-111.05
-114.09
-108.69
-94.56
-72.75
-44.83
-12.57
22.30
57.31
89.20
114.10
128.32
129.65
118.18
96.48
68.95
40.86
16.96
0.52
-7.11
-6.82
-0.98
7.28
14.69
18.49
16.77
9.01
-3.98
-19.91
-35.78
-48.60
-56.33
-58.12
-53.76
-43.76
-28.56
-8.84
14.13
38.08
60.00
77.03
87.73
92.75
93.66
92.02
87.91
79.78
65.47
43.90
16.51
-12.78
-38.57
-56.18
-63.28
-61.00
-53.03
-44.31
-38.89
-38.35
-41.74
-46.42
-49.73
-50.13
-47.75
-43.86
-39.61
-35.55
-31.21
-25.92
-19.41
-12.14
-5.26
0.03
2.79
3.18
1.92
-0.01
-1.97
-3.91
-6.39
-9.89
-14.40
-19.41
-24.03
-27.57
-30.04
-32.11
-34.34
-36.71
-38.63
-39.06
-37.47
-34.24
-30.63
-28.12
-28.14
-31.20
-36.90
-44.19
-51.41
-57.08
-60.08
-60.23
-58.32
-55.60
-53.14
-51.18
-48.97
-45.38
-39.50
-31.36
-22.02
-12.99
-5.54
-0.22
3.21
5.29
6.35
6.43
5.50
3.71
1.52
-0.56
-2.14
-2.97
-2.86
-1.40
1.68
6.50
12.65
19.24
25.14
29.33
31.41
31.59
30.55
28.86
26.74
23.99
20.32
15.77
10.89
6.50
3.55
2.84
4.72
9.07
15.42
23.14
31.33
39.06
45.11
48.15
47.25
42.18
33.69
23.39
12.88
3.31
-5.04
-12.56
-19.58
-25.92
-30.99
-33.99
-34.44
-32.20
-27.12
-19.30
-9.12
2.48
13.84
23.11
29.08
31.71
32.18
32.15
32.72
33.93
34.93
34.77
32.85
29.42
24.76
19.02
12.07
3.92
-4.70
-12.50
-18.11
-20.92
-21.17
-20.17
-19.40
-19.95
-22.41
-26.74
-32.70
-39.50
-45.70
-49.49
-49.51
-45.67
-39.78
-35.21
-35.52
-42.74
-55.89
-71.45
-84.54
-91.40
-91.07
-85.58
-78.84
-74.30
-73.18
-74.37
-75.32
-73.78
-69.08
-62.27
-54.84
-48.07
-41.76
-35.04
-27.20
-18.56
-10.39
-3.72
1.09
5.15
9.78
15.79
22.74
29.06
33.05
34.04
32.54
30.10
28.57
29.02
31.91
36.93
43.35
50.58
58.07
65.10
71.03
75.33
78.07
80.34
83.98
90.77
101.20
113.41
123.03
124.22
112.01
84.55
44.50
-0.94
-42.26
-70.59
-81.11
-74.81
-57.38
-36.34
-17.56
-3.26
7.54
17.18
26.82
35.63
41.76
44.08
43.46
42.57
44.02
48.67
54.86
59.61
60.41
56.57
49.27
40.65
32.35
25.26
19.56
15.02
11.46
8.68
6.38
4.13
1.53
-1.85
-6.17
-11.37
-17.14
-22.76
-27.19
-29.23
-27.68
-21.86
-11.95
1.03
15.53
30.10
43.84
56.77
69.37
82.32
95.91
109.76
122.77
133.32
139.57
139.81
132.83
118.17
96.57
69.85
40.76
12.49
-12.25
-32.04
-47.08
-58.86
-69.40
-80.29
-92.12
-104.36
-115.63
-124.28
-128.83
-128.45
-123.18
-113.95
-102.49
-90.68
-80.17
-71.90
-66.04
-62.22
-60.00
-58.95
-58.69
-58.77
-58.61
-57.74
-56.06
-54.03
-52.10
-50.39
-48.40
-45.13
-39.69
-31.86
-22.43
-12.75
-4.23
2.38
7.23
11.20
15.35
20.52
27.09
34.99
43.63
51.86
57.89
59.64
55.40
44.69
28.84
11.04
-4.65
-14.56
-16.59
-10.71
1.44
17.40
34.76
51.62
66.60
78.78
87.58
92.85
94.87
94.18
91.09
85.54
77.05
65.18
50.06
32.54
13.90
-4.67
-22.56
-39.72
-56.18
-71.35
-83.77
-91.39
-92.48
-86.43
-73.95
-56.77
-37.11
-17.28
0.31
12.95
17.94
13.62
0.14
-19.66
-40.90
-58.07
-66.92
-65.81
-55.83
-39.85
-21.31
-3.20
12.27
23.59
30.00
31.60
29.50
25.50
21.50
18.90
18.15
18.89
20.37
21.79
22.62
22.43
20.98
18.32
14.80
10.89
6.69
1.41
-6.56
-18.57
-34.74
-53.10
-69.88
-80.97
-83.60
-77.43
-64.36
-47.54
-29.75
-12.70
2.84
16.31
26.84
33.35
35.21
32.77
27.25
20.27
13.06
6.15
-0.21
-5.69
-9.41
-10.33
-7.82
-2.26
4.82
11.38
15.55
16.28
13.43
7.58
-0.33
-9.21
-17.89
-25.29
-30.69
-34.16
-36.35
-38.40
-41.34
-45.40
-50.00
-53.80
-55.46
-54.18
-50.07
-44.01
-37.19
-30.58
-24.54
-18.87
-13.05
-6.59
0.71
8.55
16.41
23.57
29.44
33.64
35.89
36.18
34.69
31.76
27.83
23.65
19.83
17.00
15.48
15.12
15.44
15.77
15.54
14.60
13.15
11.59
10.27
9.27
8.31
7.00
4.88
1.73
-2.44
-7.45
-12.84
-17.88
-21.70
-23.47
-22.70
-19.67
-15.24
-10.59
-6.74
-3.97
-1.91
0.37
3.65
8.41
14.23
20.17
25.00
27.54
27.21
24.16
19.40
14.51
11.27
11.00
14.05
19.74
26.49
32.60
36.90
39.24
40.42
41.40
42.77
44.47
45.95
46.84
47.24
47.58
48.31
49.42
50.58
51.47
52.10
52.89
54.41
56.94
60.22
63.68
66.89
69.84
73.09
77.45
83.76
92.46
103.46
116.21
129.55
141.91
151.37
155.91
153.95
144.99
130.20
112.61
96.64
86.56
84.90
91.19
101.97
112.42
118.35
117.84
111.51
101.17
88.38
73.39
55.56
34.37
10.25
-15.62
-41.95
-68.19
-94.41
-120.47
-145.21
-166.20
-180.60
-186.42
-183.60
-174.12
-160.98
-147.12
-134.43
-123.55
-114.37
-106.58
-100.08
-94.99
-91.41
-89.12
-87.45
-85.22
-81.46
-75.93
-69.52
-63.93
-60.75
-60.54
-62.20
-63.32
-61.14
-53.73
-40.72
-23.37
-3.89
15.34
32.29
45.26
52.77
53.57
47.15
34.47
18.28
2.62
-8.29
-11.59
-6.66
4.71
19.40
34.22
46.92
56.22
61.44
62.04
57.56
48.03
34.33
18.08
1.03
-15.49
-30.85
-44.71
-56.52
-65.32
-70.17
-70.93
-68.65
-65.41
-63.42
-64.06
-67.46
-72.66
-78.46
-83.98
-88.76
-92.68
-95.44
-96.64
-95.93
-93.41
-89.75
-86.06
-83.32
-81.96
-81.65
-81.40
-80.07
-76.76
-71.12
-63.34
-54.18
-44.67
-35.78
-28.24
-22.29
-17.60
-13.56
-9.54
-5.31
-1.22
1.98
3.64
3.52
2.25
0.95
0.69
2.08
4.91
8.28
11.18
12.74
12.74
11.49
9.56
7.71
6.50
6.16
6.52
7.02
6.92
5.73
3.42
0.51
-2.42
-4.77
-6.31
-7.14
-7.39
-7.07
-5.94
-3.47
0.78
7.10
15.33
24.75
34.24
42.64
48.99
52.88
54.59
54.71
54.02
53.06
52.32
52.40
53.91
57.30
62.29
67.76
72.07
73.89
72.71
69.14
64.49
60.07
56.58
53.89
51.29
47.81
42.66
35.53
26.50
16.10
4.96
-6.38
-17.49
-27.77
-36.50
-42.44
-44.37
-41.59
-34.44
-24.58
-14.31
-5.75
0.03
3.28
5.19
6.99
9.35
12.09
14.39
15.19
13.68
9.72
4.21
-1.09
-3.96
-2.61
3.65
13.92
26.14
38.18
48.66
57.50
65.61
73.87
82.20
89.65
94.86
97.29
97.59
97.07
96.56
95.07
89.68
76.59
53.17
19.66
-20.25
-60.45
-94.72
-118.63
-130.65
-131.80
-124.69
-112.29
-97.38
-82.61
-70.41
-62.77
-60.64
-63.45
-68.73
-73.17
-73.83
-69.64
-62.08
-54.32
-49.70
-49.87
-53.85
-58.49
-60.16
-56.54
-47.50
-34.81
-20.89
-7.75
3.38
11.76
16.68
17.58
14.64
9.46
4.94
4.40
10.04
21.94
38.07
55.34
71.17
84.60
96.45
108.28
121.55
136.56
152.58
168.63
184.25
199.97
216.90
235.76
255.90
274.84
288.90
294.42
289.04
272.57
246.89
215.08
180.41
145.27
110.87
77.35
44.06
9.93
-26.23
-65.24
-106.99
-149.83
-190.36
-223.89
-246.01
-253.96
-247.95
-231.20
-208.63
-185.25
-164.43
-147.74
-135.17
-125.99
-119.39
-114.41
-109.67
-103.56
-94.89
-83.65
-71.42
-61.06
-55.36
-55.79
-61.73
-70.96
-80.94
-90.27
-99.17
-108.95
-120.61
-133.57
-145.84
-154.93
-159.22
-158.69
-154.77
-148.99
-141.93
-133.05
-121.46
-107.27
-92.05
-78.47
-68.81
-63.54
-61.16
-59.07
-54.99
-48.19
-39.60
-30.99
-23.80
-18.57
-14.93
-12.25
-10.22
-9.03
-9.07
-10.54
-13.27
-16.89
-21.16
-25.87
-31.00
-36.41
-41.48
-45.60
-48.13
-48.79
-47.99
-46.56
-45.31
-44.61
-44.20
-43.18
-40.44
-34.85
-25.42
-11.14
8.60
33.35
60.66
86.04
103.99
109.88
102.38
84.00
60.37
37.87
20.94
11.19
7.65
8.42
12.12
18.13
25.69
33.01
37.28
35.43
26.11
10.83
-6.52
-21.29
-30.14
-32.48
-30.32
-26.93
-24.91
-25.20
-27.07
-28.96
-29.62
-28.77
-27.05
-25.41
-24.51
-24.50
-24.86
-24.82
-23.12
-18.00
-7.49
10.76
38.46
75.62
119.34
163.35
198.96
218.10
216.63
196.55
165.49
133.47
108.50
93.50
86.41
82.70
78.89
73.88
68.51
63.44
57.24
46.89
29.93
6.54
-19.74
-43.30
-59.01
-64.13
-59.17
-47.26
-32.52
-18.75
-8.48
-2.86
-1.74
-4.29
-9.35
-15.99
-23.59
-31.69
-39.69
-46.39
-50.43
-50.47
-45.88
-36.96
-24.83
-10.99
3.35
17.32
30.46
42.52
53.31
62.56
70.30
76.97
83.46
90.85
99.85
110.41
121.71
132.43
141.48
148.49
154.06
159.37
165.69
173.74
183.53
194.55
206.14
217.96
229.92
241.97
253.65
263.55
269.35
268.35
258.47
239.51
213.35
183.45
153.34
125.23
99.42
74.90
50.40
25.34
-0.07
-25.43
-50.75
-76.59
-103.35
-130.34
-155.65
-176.67
-191.28
-198.88
-200.47
-198.01
-193.46
-188.12
-182.67
-177.30
-172.21
-167.51
-163.04
-158.43
-153.12
-146.47
-138.30
-128.82
-118.72
-108.91
-100.23
-93.26
-88.04
-84.10
-80.67
-77.14
-73.37
-69.77
-67.08
-65.90
-66.34
-67.97
-70.05
-71.89
-73.12
-73.80
-74.12
-74.06
-73.13
-70.43
-65.03
-56.51
-45.31
-32.79
-20.79
-10.75
-3.23
2.45
7.29
11.73
15.26
16.65
15.12
11.15
6.66
4.03
4.85
8.95
14.72
20.15
24.01
26.34
28.16
30.42
33.29
35.99
37.40
36.75
33.94
29.23
22.89
14.91
5.25
-6.07
-18.40
-30.74
-41.96
-51.14
-57.99
-62.74
-66.06
-68.84
-71.81
-75.23
-78.64
-80.71
-79.64
-73.74
-62.23
-45.77
-26.35
-6.59
10.97
24.36
32.14
33.11
26.31
11.22
-11.68
-40.53
-72.13
-102.47
-127.53
-143.89
-149.29
-142.87
-125.50
-99.90
-69.96
-39.89
-13.02
9.12
27.00
42.36
57.85
76.25
99.51
128.01
159.58
189.55
211.94
221.63
216.72
200.01
178.00
158.15
145.54
140.75
140.44
139.81
135.77
128.29
119.77
112.86
108.37
105.05
100.55
93.50
84.49
75.75
69.76
67.58
68.24
69.44
69.19
66.69
62.46
57.79
53.87
51.50
51.24
53.45
58.12
64.42
70.60
74.53
74.54
70.48
63.76
56.65
51.27
48.69
48.63
49.85
50.46
48.37
41.26
26.94
3.71
-28.91
-69.57
-115.35
-162.44
-207.25
-247.04
-280.18
-305.76
-323.07
-331.46
-330.55
-320.76
-303.57
-281.44
-257.23
-233.29
-210.89
-189.95
-169.68
-149.32
-128.92
-109.57
-92.75
-79.58
-70.07
-63.01
-56.56
-49.24
-40.58
-31.18
-22.25
-15.04
-10.33
-8.29
-8.62
-10.62
-13.47
-16.26
-18.29
-19.27
-19.47
-19.68
-20.83
-23.69
-28.52
-35.08
-42.64
-50.20
-56.58
-60.61
-61.45
-58.98
-54.00
-47.97
-42.26
-37.33
-32.61
-26.83
-18.87
-8.76
2.21
12.01
18.90
22.28
23.16
23.68
26.39
33.54
46.52
65.31
87.92
110.18
126.37
131.02
121.22
98.27
67.69
37.15
13.65
0.88
-1.86
1.21
4.59
3.94
-2.37
-12.99
-24.80
-34.51
-40.16
-41.90
-41.59
-41.69
-43.96
-48.38
-53.19
-55.90
-54.19
-46.49
-31.90
-10.16
17.76
48.98
78.39
99.91
108.60
103.04
86.38
65.07
46.14
34.21
29.90
30.68
32.89
34.13
34.02
33.69
34.25
35.57
36.36
34.96
30.70
24.38
18.02
13.96
13.49
16.17
20.03
22.40
21.29
16.32
8.81
1.25
-4.05
-6.04
-5.44
-4.31
-4.76
-7.96
-13.32
-18.90
-22.27
-21.24
-14.63
-2.07
16.19
39.59
66.90
95.62
121.64
139.76
145.50
136.96
116.21
89.01
62.62
43.04
32.95
31.10
33.72
36.86
38.30
38.33
38.82
41.34
46.04
51.28
54.88
55.23
52.64
48.92
46.65
47.52
51.66
57.80
64.59
71.43
78.56
86.28
93.93
99.86
102.26
100.61
96.52
93.08
93.18
98.15
107.07
117.57
127.56
136.44
145.25
155.97
169.94
186.95
204.94
220.41
229.59
229.35
218.27
196.87
167.30
132.53
95.82
59.94
27.18
-1.22
-25.16
-45.84
-65.24
-84.91
-104.96
-123.51
-137.43
-143.98
-142.35
-134.40
-123.89
-114.75
-109.46
-108.28
-109.62
-111.35
-112.03
-111.54
-110.98
-111.85
-115.19
-120.98
-127.96
-134.31
-138.17
-138.55
-135.54
-130.24
-124.29
-119.32
-116.57
-116.60
-119.00
-122.65
-125.77
-126.34
-122.78
-114.28
-101.09
-84.34
-65.91
-48.10
-33.12
-22.28
-15.62
-11.84
-8.90
-5.01
0.58
7.25
13.46
17.88
20.14
21.00
22.06
24.60
29.12
34.89
40.52
44.74
46.96
47.28
46.20
44.03
40.88
36.61
31.44
26.36
22.78
21.78
23.09
24.77
24.15
19.24
10.07
-0.84
-9.68
-12.78
-8.46
2.44
17.17
32.24
44.46
51.75
53.59
50.43
43.75
35.62
28.31
24.21
25.13
31.99
44.62
61.48
80.01
97.26
110.82
119.54
123.95
125.71
126.69
127.95
129.31
129.60
127.30
121.36
111.49
98.24
82.43
64.96
46.43
26.97
6.39
-15.69
-39.36
-64.16
-88.69
-111.08
-129.11
-141.24
-147.11
-147.39
-143.51
-136.99
-129.16
-121.15
-114.21
-109.72
-108.97
-112.70
-120.35
-130.15
-139.51
-145.81
-147.46
-144.09
-136.57
-126.33
-114.81
-103.15
-92.27
-82.92
-75.33
-69.03
-62.65
-54.49
-43.31
-29.31
-14.12
-0.43
9.26
13.77
13.62
10.53
6.51
3.00
0.63
-0.29
0.67
4.10
10.42
19.00
28.29
36.26
41.27
42.73
41.05
37.07
31.46
24.42
15.98
6.62
-2.47
-9.74
-14.05
-15.35
-14.73
-13.83
-13.86
-15.36
-18.07
-21.53
-25.51
-30.04
-35.17
-40.72
-46.04
-50.14
-51.97
-50.63
-45.72
-37.57
-27.25
-16.54
-7.36
-1.16
1.81
2.61
3.20
5.62
10.89
18.85
28.07
37.01
44.44
49.84
53.42
55.73
57.73
60.92
67.72
80.75
101.44
128.30
156.47
178.94
189.42
185.47
169.78
149.21
131.41
121.65
120.88
126.34
133.95
140.53
145.02
148.05
150.72
153.64
156.68
159.52
161.94
164.03
165.60
166.14
164.60
159.58
150.14
136.30
119.48
101.99
86.23
73.58
63.74
54.52
43.05
27.26
7.40
-13.44
-30.27
-38.13
-34.34
-19.77
1.16
21.82
35.54
37.26
24.79
-1.08
-37.19
-78.77
-120.24
-156.13
-182.00
-195.64
-197.96
-192.73
-185.33
-180.54
-180.58
-184.59
-189.38
-191.57
-189.42
-183.62
-176.44
-170.40
-166.74
-165.19
-164.63
-163.92
-162.38
-159.78
-155.82
-149.89
-141.23
-129.45
-114.98
-99.22
-84.09
-71.38
-62.13
-56.34
-53.07
-50.98
-48.68
-45.24
-40.46
-34.76
-29.14
-24.74
-22.38
-22.32
-23.98
-26.20
-27.78
-28.01
-26.88
-25.15
-23.73
-23.17
-23.47
-24.09
-24.42
-24.15
-23.64
-23.78
-25.42
-29.04
-34.18
-39.61
-44.05
-46.65
-47.62
-48.03
-49.09
-51.30
-53.90
-54.91
-52.25
-44.49
-31.08
-12.12
11.92
39.85
68.89
94.33
110.51
112.83
100.36
76.87
49.69
26.84
13.72
11.27
16.36
24.24
30.93
34.86
36.77
38.20
40.12
42.46
44.01
43.46
40.23
34.70
28.20
22.08
16.95
12.54
7.88
2.03
-5.48
